;Raman shift;Intensity;Baseline;Corrected Intensity
0;51.3749;6322.0;6714.884291317926;-392.884291317926
1;55.1317;6322.0;6791.193021206277;-469.1930212062771
2;58.8869;6884.78;6867.497826180568;17.28217381943159
3;62.6406;8172.22;6943.790094088455;1228.4299059115456
4;66.3907;9665.22;7020.0612129504125;2645.158787049587
5;70.1415;12259.1;7096.302583071212;5162.797416928788
6;73.8907;15333.7;7172.505631207206;8161.194368792795
7;77.6384;17887.6;7248.661835742715;10638.938164257284
8;81.3847;21038.7;7324.762756674003;13713.937243325998
9;85.1273;24924.0;7400.800060386703;17523.199939613296
10;88.8705;28995.7;7476.765550405819;21518.93444959418
11;92.6122;31664.1;7552.651205488355;24111.44879451164
12;96.3525;31842.2;7628.449219580659;24213.75078041934
13;100.091;30189.3;7704.15202774356;22485.14797225644
14;103.826;28687.6;7779.752307175399;20907.8476928246
15;107.562;27819.0;7855.242959925994;19963.757040074008
16;111.296;26738.3;7930.61709712363;18807.682902876368
17;115.029;25748.6;8005.8680295341655;17742.731970465833
18;118.758;25122.0;8080.989256000284;17041.010743999715
19;122.488;25022.9;8155.974452791979;16866.925547208022
20;126.216;25116.2;8230.817466589353;16885.382533410648
21;129.941;25457.3;8305.512312741754;17151.787687258246
22;133.666;25691.7;8380.053175452358;17311.646824547643
23;137.39;25331.7;8454.434410442216;16877.265589557785
24;141.113;24356.7;8528.650546548844;15828.049453451156
25;144.831;23067.6;8602.696281382414;14464.903718617585
26;148.551;22087.6;8676.566470833583;13411.033529166416
27;152.269;21392.2;8750.256115442045;12641.943884557955
28;155.983;20851.2;8823.760349857836;12027.439650142165
29;159.698;20616.6;8897.07443515042;11719.525564849579
30;163.409;20438.7;8970.193752663656;11468.506247336345
31;167.121;20359.7;9043.113800936653;11316.586199063348
32;170.832;20423.8;9115.830193193588;11307.969806806412
33;174.538;20476.8;9188.338655824498;11288.461344175501
34;178.246;20365.9;9260.635028299113;11105.264971700888
35;181.952;19905.8;9332.715262971768;10573.084737028232
36;185.655;19721.6;9404.575423249442;10317.024576750557
37;189.358;19968.3;9476.211678269954;10492.088321730045
38;193.057;21379.7;9547.62030034136;11832.079699658641
39;196.757;24757.4;9618.797666692592;15138.60233330741
40;200.454;32495.9;9689.740272873374;22806.15972712663
41;204.151;35469.6;9760.44476581945;25709.15523418055
42;207.845;27672.1;9830.908020528152;17841.19197947185
43;211.539;20197.1;9901.127169088366;10295.972830911633
44;215.23;18165.4;9971.099522000892;8194.30047799911
45;218.921;17588.0;10040.822492726258;7547.177507273742
46;222.609;17364.2;10110.293576667993;7253.906423332008
47;226.297;17103.6;10179.510344701388;6924.0896552986105
48;229.982;16989.0;10248.470440240795;6740.529559759205
49;233.668;16980.1;10317.17157594146;6662.928424058538
50;237.35;16915.7;10385.611531863922;6530.0884681360785
51;241.032;16826.6;10453.788154697992;6372.811845302007
52;244.711;16745.2;10521.699356434363;6223.500643565638
53;248.391;16776.3;10589.34311279184;6186.95688720816
54;252.067;16785.9;10656.717461724222;6129.18253827578
55;255.744;16794.3;10723.820503054878;6070.479496945121
56;259.417;17020.2;10790.650397898997;6229.549602101004
57;263.089;17115.9;10857.205368076566;6258.694631923436
58;266.761;17190.8;10923.483697703072;6267.3163022969275
59;270.43;17239.2;10989.483733480933;6249.716266519068
60;274.099;17033.0;11055.203884785722;5977.796115214278
61;277.765;17004.1;11120.642623490183;5883.457376509816
62;281.43;17025.3;11185.79848124501;5839.501518754989
63;285.095;17072.0;11250.670048535467;5821.329951464533
64;288.756;17111.4;11315.255974241818;5796.1440257581835
65;292.416;17105.7;11379.554965457626;5726.145034542375
66;296.077;16982.4;11443.56578723789;5538.834212762111
67;299.734;16943.3;11507.287261899051;5436.012738100948
68;303.39;16793.8;11570.718267145883;5223.081732854116
69;307.046;16836.3;11633.857735043277;5202.442264956722
70;310.699;16661.0;11696.70464988694;4964.29535011306
71;314.351;16701.4;11759.258047996995;4942.141952003007
72;318.003;16535.2;11821.5170153365;4713.682984663501
73;321.651;16453.8;11883.480687289935;4570.319312710064
74;325.298;16421.9;11945.148246378609;4476.751753621393
75;328.944;16477.8;12006.51892082702;4471.281079172979
76;332.59;16544.0;12067.591983627173;4476.408016372827
77;336.233;16666.8;12128.366752483873;4538.433247516126
78;339.874;16585.4;12188.842589866004;4396.557410133997
79;343.514;16607.3;12249.018903626784;4358.281096373215
80;347.153;16754.9;12308.895145584998;4446.004854415003
81;350.792;16891.9;12368.470811142233;4523.429188857768
82;354.428;16976.9;12427.745440160124;4549.154559839877
83;358.062;17140.0;12486.718617734594;4653.281382265406
84;361.694;17171.1;12545.389974453095;4625.710025546903
85;365.326;17256.1;12603.759187435893;4652.340812564105
86;368.958;17147.0;12661.825980060343;4485.174019939657
87;372.586;17058.7;12719.590122227204;4339.109877772797
88;376.213;16899.6;12777.051428688967;4122.548571311032
89;379.839;16637.2;12834.209757589215;3802.990242410786
90;383.463;16630.6;12891.065008297008;3739.5349917029907
91;387.086;16543.6;12947.617118211308;3595.98288178869
92;390.707;16500.6;13003.866062126413;3496.733937873585
93;394.327;16557.3;13059.811850796443;3497.4881492035565
94;397.947;16508.8;13115.45452994285;3393.345470057149
95;401.564;16412.1;13170.794180261959;3241.3058197380396
96;405.18;16470.1;13225.83091638354;3244.2690836164584
97;408.794;16436.0;13280.56488535042;3155.435114649579
98;412.407;16307.8;13334.996266648119;2972.8037333518805
99;416.018;16481.8;13389.125271316498;3092.6747286835016
100;419.628;16474.9;13442.95214012344;3031.947859876562
101;423.237;16465.0;13496.477144763569;2968.5228552364315
102;426.844;16584.3;13549.700587250987;3034.599412749012
103;430.449;16548.2;13602.622799285022;2945.577200714979
104;434.054;16624.7;13655.244142910977;2969.455857089024
105;437.657;16663.9;13707.565009629921;2956.33499037008
106;441.258;16727.4;13759.585820637483;2967.814179362518
107;444.858;16716.8;13811.30702669263;2905.4929733073695
108;448.457;16720.7;13862.729108232463;2857.970891767538
109;452.054;16744.2;13913.852574749008;2830.347425250993
110;455.65;16795.7;13964.677964313989;2831.022035686012
111;459.244;16844.0;14015.205843302607;2828.794156697393
112;462.837;16906.4;14065.436806400272;2840.9631935997295
113;466.429;16900.3;14115.371476580323;2784.928523419676
114;470.019;16931.7;14165.010505225724;2766.6894947742767
115;473.605;16999.0;14214.354571568716;2784.645428431284
116;477.193;16974.4;14263.404382508425;2710.995617491577
117;480.779;17023.3;14312.160672790429;2711.13932720957
118;484.363;17016.1;14360.624204270249;2655.4757957297497
119;487.946;17044.9;14408.795765914789;2636.1042340852127
120;491.528;17259.8;14456.676173245687;2803.123826754312
121;495.108;17318.4;14504.266268145631;2814.13373185437
122;498.687;17402.4;14551.566920528536;2850.8330794714657
123;502.263;17464.1;14598.579028449645;2865.5209715503534
124;505.839;17605.7;14645.303518472527;2960.396481527474
125;509.414;17712.1;14691.741345815943;3020.358654184056
126;512.987;17881.9;14737.893495302618;3144.006504697383
127;516.559;17885.9;14783.76098195886;3102.1390180411418
128;520.127;17973.6;14829.34485225102;3144.255147748978
129;523.697;17854.6;14874.646183666855;2979.9538163331435
130;527.264;18059.4;14919.666085136654;3139.7339148633473
131;530.831;18025.4;14964.405695390244;3060.994304609758
132;534.396;17932.7;15008.866184554783;2923.8338154452176
133;537.957;17748.2;15053.048753367359;2695.151246632642
134;541.519;17484.6;15096.954631803377;2387.6453681966213
135;545.08;17441.2;15140.585076789754;2300.614923210247
136;548.64;17316.0;15183.94136912985;2132.0586308701495
137;552.195;16916.2;15227.024812633175;1689.1751873668254
138;555.752;16832.2;15269.83673242982;1562.363267570181
139;559.307;16631.8;15312.378470541615;1319.4215294583846
140;562.859;16591.3;15354.651384614011;1236.6486153859878
141;566.412;16506.9;15396.656845486677;1110.243154513324
142;569.963;16531.7;15438.396236365756;1093.3037636342451
143;573.51;16512.9;15479.8709515598;1033.0290484402012
144;577.059;16423.6;15521.082396310387;902.5176036896119
145;580.606;16389.4;15562.031986189384;827.3680138106174
146;584.149;16350.1;15602.721145793832;747.3788542061684
147;587.693;16419.2;15643.151307994449;776.0486920055519
148;591.236;16264.6;15683.323913135728;581.2760868642727
149;594.776;16256.4;15723.240409322649;533.1595906773509
150;598.316;16334.7;15762.902250472947;571.7977495270534
151;601.852;16703.4;15802.310895835948;901.0891041640534
152;605.39;17737.4;15841.467810378945;1895.9321896210568
153;608.924;18790.2;15880.374468080114;2909.825531919887
154;612.458;18438.7;15919.032361876956;2519.6676381230445
155;615.991;17173.8;15957.443013805218;1216.3569861947817
156;619.521;16617.0;15995.607971097324;621.3920289026755
157;623.051;16704.3;16033.52879314926;670.771206850739
158;626.578;16809.4;16071.20704557093;738.1929544290706
159;630.106;17003.3;16108.644300679947;894.655699320052
160;633.63;17148.1;16145.842138175847;1002.2578618241514
161;637.155;17065.0;16182.802146704724;882.1978532952762
162;640.677;16962.2;16219.525924935237;742.6740750647641
163;644.199;16818.7;16256.015080358024;562.6849196419771
164;647.718;16588.8;16292.271227890442;296.5287721095574
165;651.237;16612.1;16328.295988076694;283.80401192330464
166;654.754;16631.7;16364.090984426262;267.60901557373836
167;658.27;16770.2;16399.657843286663;370.54215671333804
168;661.784;16757.2;16434.99819368148;322.20180631852054
169;665.296;16744.6;16470.113668339716;274.4863316602823
170;668.808;16786.4;16505.00590321238;281.3940967876224
171;672.318;16847.2;16539.676536995325;307.52346300467616
172;675.828;16836.7;16574.127211198345;262.5727888016554
173;679.334;17040.3;16608.359570406457;431.9404295935419
174;682.839;17083.9;16642.375261830388;441.52473816961356
175;686.345;17218.3;16676.175937000262;542.1240629997374
176;689.848;17236.9;16709.76325186144;527.1367481385605
177;693.351;17340.1;16743.138867780504;596.9611322194942
178;696.851;17452.3;16776.304451395397;675.9955486046019
179;700.349;17538.3;16809.261675313668;729.0383246863312
180;703.848;17598.7;16842.01221890282;756.6877810971819
181;707.344;17744.8;16874.557768820734;870.2422311792652
182;710.838;17830.3;16906.90001929217;923.399980707829
183;714.331;18032.4;16939.0406732443;1093.3593267557007
184;717.825;18121.3;16970.98144283829;1150.3185571617105
185;721.315;18335.9;17002.72405116888;1333.1759488311218
186;724.804;18348.2;17034.27023283399;1313.9297671660097
187;728.294;18396.2;17065.621735763303;1330.5782642366976
188;731.78;18497.3;17096.78032102579;1400.5196789742076
189;735.265;18697.2;17127.747762996205;1569.4522370037957
190;738.749;18948.6;17158.52585005448;1790.074149945518
191;742.233;19161.0;17189.11638627507;1971.883613724931
192;745.714;19470.3;17219.521193633165;2250.778806366834
193;749.194;20042.8;17249.74211382279;2793.0578861772083
194;752.672;20503.8;17279.78101104575;3224.018988954249
195;756.149;21373.9;17309.639777434422;4064.260222565579
196;759.626;23175.7;17339.320337361365;5836.379662638636
197;763.101;27293.3;17368.82465584173;9924.475344158269
198;766.573;39626.9;17398.15475625445;22228.74524374555
199;770.045;64515.0;17427.312761223206;47087.687238776794
200;773.515;64515.0;17456.301015659108;47058.698984340896
201;776.984;64515.0;17485.122335350137;47029.87766464986
202;780.452;64515.0;17513.78000667125;47001.21999332875
203;783.92;57457.7;17542.277786296174;39915.42221370382
204;787.385;31344.6;17570.61990091084;13773.98009908916
205;790.848;27511.1;17598.810976355388;9912.289023644611
206;794.31;27489.3;17626.85577620976;9862.44422379024
207;797.771;26407.9;17654.759163176757;8753.140836823244
208;801.231;26068.1;17682.526098583618;8385.573901416381
209;804.689;22205.6;17710.161631288956;4495.438368711042
210;808.146;19800.6;17737.67089400712;2062.92910599288
211;811.601;19088.1;17765.05906440682;1323.040935593177
212;815.056;18835.7;17792.331340786077;1043.3686592139238
213;818.508;18849.7;17819.492934673293;1030.2070653267074
214;821.96;18504.8;17846.54906803055;658.2509319694509
215;825.41;18428.7;17873.50497312199;555.1950268780092
216;828.859;18484.3;17900.365888794266;583.9341112057336
217;832.307;18425.9;17927.137059445962;498.76294055403923
218;835.753;18338.8;17953.823735315014;384.9762646849849
219;839.198;18334.6;17980.431171626973;354.16882837302546
220;842.642;18227.6;18006.964627457153;220.6353725428453
221;846.084;18243.0;18033.429365422537;209.57063457746335
222;849.525;18213.2;18059.83065034646;153.36934965354158
223;852.964;18051.3;18086.17374914796;-34.87374914796237
224;856.403;18067.0;18112.463930279773;-45.463930279773194
225;859.84;18079.4;18138.706113805878;-59.30611380587652
226;863.276;18094.2;18164.90476560561;-70.70476560560928
227;866.71;18104.7;18191.063759090237;-86.36375909023627
228;870.141;18077.3;18217.186261330426;-139.88626133042635
229;873.573;18194.3;18243.274576622898;-48.974576622898894
230;877.003;18312.9;18269.329611800636;43.57038819936497
231;880.432;18390.7;18295.351784440616;95.3482155593847
232;883.86;18514.0;18321.341512555504;192.65848744449613
233;887.287;18669.0;18347.29921511143;321.7007848885696
234;890.712;18743.7;18373.22531300109;370.47468699891033
235;894.134;18805.3;18399.120230334178;406.17976966582137
236;897.556;18968.4;18424.984394925134;543.4156050748679
237;900.978;19105.8;18450.818238650176;654.9817613498235
238;904.398;19166.4;18476.622198819674;689.7778011803275
239;907.816;19373.4;18502.396719293793;871.0032807062089
240;911.232;19456.6;18528.14225083048;928.45774916952
241;914.648;19467.3;18553.8592528977;913.4407471023005
242;918.063;19579.2;18579.548194247982;999.6518057520188
243;921.476;19558.4;18605.209552768258;953.1904472317437
244;924.886;19655.1;18630.843816341956;1024.2561836580426
245;928.297;19590.7;18656.451482384404;934.2485176155969
246;931.707;19579.3;18682.033058553472;897.2669414465272
247;935.115;19566.2;18707.589061849525;858.6109381504757
248;938.52;19673.2;18733.120018245587;940.0799817544139
249;941.925;19838.9;18758.626462300785;1080.2735376992168
250;945.33;19953.1;18784.10893797505;1168.9910620249502
251;948.731;20564.8;18809.568000031028;1755.2319999689716
252;952.133;21130.4;18835.00421492125;2295.395785078752
253;955.533;22207.1;18860.418166650576;3346.681833349423
254;958.93;23744.4;18885.81046217782;4858.589537822183
255;962.328;26113.3;18911.181741928594;7202.118258071405
256;965.723;29068.2;18936.532694914407;10131.667305085593
257;969.118;32784.4;18961.86408216793;13822.535917832072
258;972.512;36701.8;18987.1767660385;17714.6232339615
259;975.903;39944.9;19012.47174710082;20932.428252899183
260;979.294;41870.2;19037.750203075793;22832.449796924204
261;982.682;41637.2;19063.013521008615;22574.18647899138
262;986.071;40318.8;19088.26331626897;21230.536683731032
263;989.458;38242.2;19113.5014299684;19128.698570031596
264;992.843;36050.3;19138.729915523792;16911.57008447621
265;996.228;34040.3;19163.951017639;14876.348982361003
266;999.609;31944.0;19189.167150133566;12754.832849866434
267;1002.99;30014.0;19214.380875590527;10799.619124409473
268;1006.37;28503.7;19239.59488414123;9264.105115858772
269;1009.75;27113.8;19264.811973913187;7848.988026086812
270;1013.13;25836.8;19290.035035674962;6546.764964325037
271;1016.5;24784.2;19315.267038685;5468.932961315
272;1019.88;23784.6;19340.511017669396;4444.088982330602
273;1023.25;23120.1;19365.770062043568;3754.3299379564305
274;1026.62;22563.6;19391.047305663822;3172.5526943361765
275;1029.99;21921.9;19416.345919929758;2505.554080070244
276;1033.37;21417.7;19441.669107966485;1976.0308920335156
277;1036.73;21246.4;19467.02009795465;1779.3799020453516
278;1040.1;20871.2;19492.40213783519;1378.7978621648108
279;1043.47;20599.1;19517.81849334284;1081.2815066571602
280;1046.83;20331.4;19543.272444000304;788.1275559996975
281;1050.19;20231.4;19568.767280143114;662.632719856887
282;1053.56;20127.4;19594.30629998807;533.0937000119302
283;1056.92;20020.7;19619.892808378296;400.807191621705
284;1060.28;20001.4;19645.530115487843;355.869884512158
285;1063.63;19996.7;19671.221535498826;325.47846450117504
286;1066.99;19991.8;19696.970386152054;294.82961384794544
287;1070.35;19987.2;19722.7799884431;264.42001155690014
288;1073.7;19997.0;19748.65366631583;248.34633368417053
289;1077.05;19811.1;19774.59474635829;36.505253641709714
290;1080.41;19878.2;19800.606557641975;77.59344235802564
291;1083.76;19897.8;19826.692429603434;71.10757039656528
292;1087.1;19786.8;19852.855692455207;-66.05569245520746
293;1090.45;19728.3;19879.099677120896;-150.79967712089638
294;1093.8;19678.7;19905.427054627744;-226.7270546277432
295;1097.14;19804.4;19931.83898951422;-127.43898951421943
296;1100.49;19797.9;19958.334381315522;-160.43438131552102
297;1103.83;19819.7;19984.910856451334;-165.2108564513328
298;1107.17;19863.2;20011.564438601894;-148.3644386018932
299;1110.51;20122.2;20038.289500990988;83.91049900901271
300;1113.85;20166.0;20065.07893468168;100.92106531832178
301;1117.19;20145.4;20091.925631576127;53.474368423874694
302;1120.53;20293.3;20118.822484585697;174.47751541430262
303;1123.86;20415.1;20145.762387156487;269.33761284351203
304;1127.19;20399.7;20172.73823447937;226.96176552063116
305;1130.53;20497.7;20199.742924438582;297.9570755614186
306;1133.86;20577.7;20226.769357187954;350.93064281204715
307;1137.19;20549.0;20253.810435860876;295.18956413912383
308;1140.51;20676.8;20280.859067100046;395.9409328999536
309;1143.84;20711.4;20307.908160500025;403.4918394999768
310;1147.17;20751.2;20334.95062961478;416.24937038521966
311;1150.49;20951.8;20361.979392033187;589.8206079668125
312;1153.82;20957.2;20388.987369506587;568.2126304934136
313;1157.14;20920.9;20415.967489684528;504.93251031547334
314;1160.46;21009.4;20442.91268589866;566.4873141013413
315;1163.78;21087.6;20469.81589652996;617.7841034700396
316;1167.1;21205.9;20496.67006562426;709.2299343757404
317;1170.42;21151.9;20523.46814340522;628.4318565947797
318;1173.73;21304.7;20550.2030871888;754.4969128112025
319;1177.05;21239.7;20576.86786057527;662.8321394247323
320;1180.36;21309.8;20603.45543470986;706.3445652901391
321;1183.67;21329.9;20629.95878736612;699.941212633883
322;1186.98;21519.7;20656.370903381016;863.3290966189852
323;1190.29;21634.2;20682.684774590918;951.5152254090826
324;1193.6;21655.8;20708.89340146547;946.9065985345296
325;1196.91;21683.6;20734.98979398947;948.6102060105295
326;1200.21;21867.6;20760.96697161676;1106.6330283832394
327;1203.52;22096.6;20786.81796328728;1309.782036712717
328;1206.82;22155.0;20812.535809007295;1342.464190992705
329;1210.12;22450.0;20838.113561880855;1611.8864381191452
330;1213.42;22487.1;20863.544288436675;1623.5557115633237
331;1216.72;22680.7;20888.821071322334;1791.8789286776664
332;1220.02;22960.3;20913.937009420944;2046.362990579055
333;1223.32;23135.4;20938.885219534382;2196.514780465619
334;1226.61;23481.1;20963.658838928164;2517.4411610718344
335;1229.91;23763.9;20988.251026832953;2775.648973167048
336;1233.2;24009.7;21012.65496765382;2997.045032346181
337;1236.49;24334.9;21036.86387355231;3298.0361264476924
338;1239.78;24668.6;21060.8709866604;3607.729013339598
339;1243.07;24980.4;21084.669582090406;3895.7304179095954
340;1246.36;25283.7;21108.25297103193;4175.447028968072
341;1249.65;25758.8;21131.614503631863;4627.185496368136
342;1252.94;26027.3;21154.747571791548;4872.552428208452
343;1256.22;26358.7;21177.64561368416;5181.054386315842
344;1259.5;26676.0;21200.302116208382;5475.697883791618
345;1262.78;27060.7;21222.710618073444;5837.989381926556
346;1266.07;27526.3;21244.86471274554;6281.435287254459
347;1269.34;27960.0;21266.758052070763;6693.241947929237
348;1272.62;28254.0;21288.384350709537;6965.615649290463
349;1275.9;28835.1;21309.7373902547;7525.362609745298
350;1279.17;29179.9;21330.811021955233;7849.088978044769
351;1282.45;29556.0;21351.59917231373;8204.40082768627
352;1285.72;30082.7;21372.095846323653;8710.604153676348
353;1288.99;30544.2;21392.29513102246;9151.90486897754
354;1292.26;31017.1;21412.191200553643;9604.908799446355
355;1295.53;31507.6;21431.778320579753;10075.821679420245
356;1298.8;32045.0;21451.050852812394;10593.949147187606
357;1302.07;32478.0;21470.003259721383;11007.996740278617
358;1305.34;33065.0;21488.63010971603;11576.369890283971
359;1308.6;33605.8;21506.926081285597;12098.873918714406
360;1311.86;34192.1;21524.885968683036;12667.214031316962
361;1315.12;34778.2;21542.504687150027;13235.69531284997
362;1318.39;35512.3;21559.77727860037;13952.522721399633
363;1321.65;36357.3;21576.698917304813;14780.60108269519
364;1324.9;37016.3;21593.264917059325;15423.035082940678
365;1328.16;37764.6;21609.470739465873;16155.129260534126
366;1331.42;38692.0;21625.31200035676;17066.68799964324
367;1334.67;39619.9;21640.784477115572;17979.11552288443
368;1337.92;40447.8;21655.884117792757;18791.915882207246
369;1341.18;41251.2;21670.607050229897;19580.5929497701
370;1344.43;42087.3;21684.949590187716;20402.350409812287
371;1347.68;42599.4;21698.908249232856;20900.491750767145
372;1350.93;43097.9;21712.479742955453;21385.42025704455
373;1354.17;43221.7;21725.660995950548;21496.03900404945
374;1357.42;42936.7;21738.449146667383;21198.250853332614
375;1360.67;42694.4;21750.841548515556;20943.558451484445
376;1363.91;42103.9;21762.835766887165;20341.064233112837
377;1367.15;41382.7;21774.429576609877;19608.27042339012
378;1370.39;40514.1;21785.620955921982;18728.479044078016
379;1373.63;39518.8;21796.408079144494;17722.39192085551
380;1376.87;38670.6;21806.7893078832;16863.8106921168
381;1380.11;37911.7;21816.763180967795;16094.936819032202
382;1383.34;37284.2;21826.32840586608;15457.871594133918
383;1386.58;36651.0;21835.48385099521;14815.51614900479
384;1389.81;35937.7;21844.228539351046;14093.47146064895
385;1393.04;35202.1;21852.561642084613;13349.538357915386
386;1396.28;34725.0;21860.48247128162;12864.517528718381
387;1399.51;34139.1;21867.99047252315;12271.109527476849
388;1402.74;33674.8;21875.08522003545;11799.714779964554
389;1405.96;33352.0;21881.76641075584;11470.233589244159
390;1409.19;32766.7;21888.033859618794;10878.666140381207
391;1412.41;32423.6;21893.88749626109;10529.712503738909
392;1415.64;32076.4;21899.327359106155;10177.072640893846
393;1418.86;31722.2;21904.353591874537;9817.846408125464
394;1422.08;31402.3;21908.9664400575;9493.3335599425
395;1425.3;31174.3;21913.166247324767;9261.133752675232
396;1428.52;30856.8;21916.953452279402;8939.846547720597
397;1431.74;30643.6;21920.328586135787;8723.271413864211
398;1434.96;30211.6;21923.292269506757;8288.307730493241
399;1438.17;30124.0;21925.845210237854;8198.154789762146
400;1441.39;29822.4;21927.988199057698;7894.411800942304
401;1444.6;29710.4;21929.722108676437;7780.677891323565
402;1447.81;29493.9;21931.04789074833;7562.852109251671
403;1451.02;29396.9;21931.966574734408;7464.9334252655935
404;1454.23;29244.2;21932.479265724214;7311.7207342757865
405;1457.44;29208.9;21932.58714345662;7276.31285654338
406;1460.65;29181.9;21932.29146078771;7249.608539212291
407;1463.85;29165.9;21931.593543336676;7234.306456663326
408;1467.06;29157.4;21930.494789218774;7226.905210781228
409;1470.26;29554.1;21928.996668892305;7625.1033311076935
410;1473.47;29901.4;21927.10072508463;7974.299274915371
411;1476.67;30440.2;21924.80857677412;8515.39142322588
412;1479.87;30590.9;21922.12192268214;8668.77807731786
413;1483.07;30511.6;21919.042546683955;8592.557453316043
414;1486.26;30559.2;21915.572319342587;8643.627680657413
415;1489.46;30562.8;21911.713197146637;8651.086802853362
416;1492.65;30923.1;21907.46722302098;9015.632776979019
417;1495.85;31205.8;21902.83652640134;9302.963473598658
418;1499.04;31724.9;21897.823326879767;9827.076673120235
419;1502.23;32383.3;21892.42993707793;10490.87006292207
420;1505.42;33303.4;21886.65876788826;11416.74123211174
421;1508.61;34231.6;21880.512335111867;12351.087664888131
422;1511.8;34878.9;21873.99326871728;13004.906731282721
423;1514.99;35505.2;21867.104322183885;13638.095677816113
424;1518.17;35729.7;21859.848379040108;13869.85162095989
425;1521.36;36092.9;21852.228459195325;14240.671540804677
426;1524.54;36011.7;21844.24772125742;14167.452278742578
427;1527.72;36252.8;21835.909466240984;14416.890533759019
428;1530.9;36322.2;21827.217136835126;14494.98286316487
429;1534.08;36589.1;21818.17431989786;14770.92568010214
430;1537.26;36680.4;21808.784747237005;14871.615252762997
431;1540.44;37072.7;21799.052298369657;15273.64770163034
432;1543.61;37211.7;21788.98100152905;15422.718998470948
433;1546.79;37153.9;21778.575037684877;15375.324962315124
434;1549.96;37388.8;21767.838742034008;15620.961257965995
435;1553.13;37553.0;21756.776603526552;15796.223396473448
436;1556.3;37818.2;21745.393267322223;16072.806732677775
437;1559.47;38217.1;21733.693536542953;16483.406463457046
438;1562.64;38679.3;21721.682375038723;16957.61762496128
439;1565.81;39264.1;21709.36491149357;17554.73508850643
440;1568.98;40074.4;21696.746444167697;18377.653555832305
441;1572.14;40785.4;21683.83244686864;19101.56755313136
442;1575.31;41769.2;21670.628577180483;20098.571422819514
443;1578.47;42502.9;21657.140683702964;20845.759316297037
444;1581.63;42944.3;21643.37481602151;21300.925183978492
445;1584.79;43201.8;21629.337232179125;21572.462767820878
446;1587.95;43110.8;21615.03440322806;21495.765596771944
447;1591.11;42941.9;21600.473015945194;21341.426984054808
448;1594.27;42474.4;21585.659972065045;20888.740027934957
449;1597.42;41987.9;21570.60238673639;20417.29761326361
450;1600.58;41576.4;21555.30758399541;20021.09241600459
451;1603.73;40874.8;21539.78309205124;19335.016907948764
452;1606.88;40212.8;21524.036639323935;18688.76336067607
453;1610.03;39337.3;21508.076147583713;17829.22385241629
454;1613.18;38536.4;21491.90972548838;17044.49027451162
455;1616.33;37713.0;21475.54565998798;16237.45434001202
456;1619.48;36915.4;21458.992408477458;15456.407591522544
457;1622.63;35847.8;21442.258590726295;14405.541409273708
458;1625.77;34634.7;21425.352981068037;13209.34701893196
459;1628.92;33495.7;21408.284497891633;12087.415502108364
460;1632.06;32246.8;21391.06219167949;10855.737808320508
461;1635.2;31056.2;21373.695233788167;9682.504766211834
462;1638.34;29889.4;21356.192904131585;8533.207095868416
463;1641.48;28982.0;21338.564579448725;7643.4354205512755
464;1644.62;28087.4;21320.819721810607;6766.580278189394
465;1647.76;27217.9;21302.96786972262;5914.932130277382
466;1650.89;26554.9;21285.018629355924;5269.881370644078
467;1654.03;25887.1;21266.98166603098;4620.118333969018
468;1657.16;25149.3;21248.866697767065;3900.433302232934
469;1660.29;24636.0;21230.683488784638;3405.316511215362
470;1663.43;24170.1;21212.44184230848;2957.6581576915196
471;1666.56;23914.1;21194.15159561653;2719.9484043834673
472;1669.68;23633.6;21175.822615563302;2457.7773844366966
473;1672.81;23460.0;21157.46479620278;2302.535203797219
474;1675.94;23527.6;21139.08805616672;2388.5119438332767
475;1679.06;23635.7;21120.70233711222;2514.997662887781
476;1682.19;23713.1;21102.31760458147;2610.7823954185296
477;1685.31;23944.6;21083.94384926663;2860.656150733368
478;1688.43;23910.0;21065.5910879677;2844.4089120323006
479;1691.55;23664.1;21047.269366091212;2616.8306339087867
480;1694.67;23454.2;21028.988757487787;2425.211242512214
481;1697.79;23283.0;21010.759362176337;2272.240637823663
482;1700.91;23236.8;20992.591304427886;2244.2086955721134
483;1704.03;23270.7;20974.494731235845;2296.2052687641553
484;1707.14;23221.3;20956.479812035715;2264.820187964284
485;1710.26;23248.0;20938.556739225056;2309.443260774944
486;1713.37;23080.3;20920.73572784961;2159.56427215039
487;1716.48;22728.2;20903.027016049546;1825.172983950455
488;1719.59;22371.3;20885.440863560656;1485.8591364393433
489;1722.7;22026.6;20867.98754837045;1158.6124516295495
490;1725.81;21645.2;20850.677363325023;794.5226366749775
491;1728.92;21403.0;20833.52061285658;569.4793871434194
492;1732.02;21103.9;20816.52760934255;287.37239065745234
493;1735.12;20857.9;20799.708670855143;58.19132914485817
494;1738.23;20828.9;20783.074118340293;45.8258816597081
495;1741.33;20796.3;20766.63427332582;29.665726674178586
496;1744.43;20742.0;20750.399457797812;-8.39945779781192
497;1747.53;20581.0;20734.379994038994;-153.37999403899448
498;1750.63;20548.1;20718.586120421525;-170.48612042152672
499;1753.73;20619.4;20703.026543051423;-83.62654305142132
500;1756.83;20490.4;20687.708264878376;-197.30826487837476
501;1759.92;20522.2;20672.637453422903;-150.43745342290276
502;1763.01;20485.2;20657.818305095956;-172.6183050959553
503;1766.11;20522.7;20643.253513438336;-120.55351343833536
504;1769.2;20572.7;20628.944047534005;-56.244047534004494
505;1772.29;20683.4;20614.889672137324;68.51032786267751
506;1775.38;20698.2;20601.089590124633;97.11040987536762
507;1778.47;20763.1;20587.54300505736;175.556994942639
508;1781.56;20778.4;20574.249121468016;204.15087853198565
509;1784.64;20759.8;20561.20714564468;198.59285435532001
510;1787.73;20797.2;20548.416285916926;248.7837140830743
511;1790.81;20867.2;20535.875752600252;331.32424739974886
512;1793.9;20875.2;20523.58475849798;351.6152415020224
513;1796.98;21027.8;20511.54251972665;516.2574802733507
514;1800.06;20970.3;20499.74825591895;470.55174408105086
515;1803.14;20966.7;20488.201191870132;478.49880812986885
516;1806.22;20962.3;20476.90055708098;485.39944291902066
517;1809.29;20957.2;20465.845585837254;491.35441416274625
518;1812.37;20888.0;20455.03551727872;432.96448272127964
519;1815.44;20872.7;20444.469595458682;428.2304045413184
520;1818.52;20961.6;20434.147068760085;527.4529312399136
521;1821.59;20794.2;20424.067189848163;370.1328101518375
522;1824.66;20821.4;20414.229216662658;407.1707833373439
523;1827.73;20795.7;20404.63241084464;391.06758915536193
524;1830.8;20634.4;20395.276038106855;239.12396189314677
525;1833.87;20665.6;20386.159368072727;279.44063192727117
526;1836.94;20599.7;20377.281672756915;222.4183272430855
527;1840.0;20500.7;20368.64222696846;132.05777303154173
528;1843.07;20597.9;20360.240307740576;237.65969225942536
529;1846.13;20547.6;20352.075193427052;195.52480657294655
530;1849.2;20486.9;20344.146164758247;142.75383524175413
531;1852.26;20433.1;20336.452504419773;96.64749558022595
532;1855.32;20310.0;20328.99349652477;-18.993496524770308
533;1858.38;20404.4;20321.768426152856;82.63157384714577
534;1861.43;20443.8;20314.776388638613;129.02361136138643
535;1864.49;20382.3;20308.016480142927;74.28351985707195
536;1867.55;20471.8;20301.487798116912;170.31220188308725
537;1870.6;20410.3;20295.18944075449;115.11055924550965
538;1873.66;20456.3;20289.120507952684;167.17949204731485
539;1876.71;20440.9;20283.280100759624;157.61989924037698
540;1879.76;20649.2;20277.667321895216;371.5326781047843
541;1882.81;20665.0;20272.281275655554;392.71872434444595
542;1885.86;20609.4;20267.121070052053;342.2789299479482
543;1888.91;20702.8;20262.185817023314;440.6141829766857
544;1891.95;20856.6;20257.474631930712;599.1253680692862
545;1895.0;20954.4;20252.986634541743;701.4133654582583
546;1898.04;21023.2;20248.72095061514;774.4790493848595
547;1901.09;21172.2;20244.676712923774;927.5232870762266
548;1904.13;21072.2;20240.853061985305;831.3469380146962
549;1907.17;21189.3;20237.24914759262;952.0508524073775
550;1910.21;21277.0;20233.864127852074;1043.1358721479264
551;1913.25;21230.8;20230.697170390522;1000.1028296094773
552;1916.29;21230.3;20227.74745326617;1002.5525467338302
553;1919.32;21255.9;20225.014164538232;1030.8858354617696
554;1922.36;21180.6;20222.49650229144;958.1034977085583
555;1925.39;21125.3;20220.19367491939;905.106325080611
556;1928.43;21090.9;20218.104900396687;872.7950996033142
557;1931.46;20905.7;20216.229405749014;689.4705942509863
558;1934.49;20803.1;20214.56642673;588.5335732699969
559;1937.52;20659.0;20213.115205987957;445.88479401204313
560;1940.55;20728.2;20211.874992056513;516.3250079434874
561;1943.58;20654.3;20210.84503792814;443.4549620718608
562;1946.61;20661.6;20210.02460175853;451.57539824146806
563;1949.63;20574.7;20209.412946137927;365.28705386207366
564;1952.66;20628.7;20209.00933817232;419.69066182768074
565;1955.68;20558.4;20208.813048620555;349.58695137944596
566;1958.7;20467.4;20208.82335243838;258.57664756162194
567;1961.72;20533.1;20209.039528077396;324.060471922603
568;1964.74;20435.2;20209.460856574962;225.7391434250385
569;1967.76;20527.4;20210.086622209023;317.31337779097885
570;1970.78;20526.9;20210.916111514893;315.98388848510876
571;1973.8;20484.0;20211.948614201017;272.05138579898266
572;1976.81;20337.3;20213.183423135662;124.11657686433682
573;1979.83;20500.3;20214.61983390759;285.6801660924102
574;1982.84;20357.3;20216.257143346724;141.04285665327552
575;1985.85;20491.0;20218.094651139767;272.90534886023306
576;1988.87;20478.1;20220.131658383845;257.96834161615334
577;1991.88;20507.6;20222.367468905126;285.2325310948727
578;1994.89;20508.7;20224.801389109452;283.8986108905483
579;1997.89;20413.2;20227.43272825499;185.76727174501139
580;2000.9;20594.9;20230.26079843888;364.63920156112
581;2003.91;20548.3;20233.284913615942;315.0150863840572
582;2006.91;20680.2;20236.50439138737;443.69560861263017
583;2009.91;20615.1;20239.918552504503;375.1814474954954
584;2012.92;20698.3;20243.52672215563;454.77327784436784
585;2015.92;20796.2;20247.32822928085;548.8717707191499
586;2018.92;20863.3;20251.32240736798;611.9775926320181
587;2021.92;20750.9;20255.508595393538;495.39140460646377
588;2024.92;20826.2;20259.886138453814;566.3138615461867
589;2027.91;20878.2;20264.454386599;613.745613400999
590;2030.91;20899.6;20269.212695542417;630.3873044575812
591;2033.9;20974.3;20274.160427134826;700.1395728651732
592;2036.9;20970.2;20279.296949530846;690.9030504691546
593;2039.89;21046.6;20284.621637886503;761.9783621134957
594;2042.88;20831.4;20290.13387426684;541.2661257331602
595;2045.88;21029.8;20295.833048356686;733.9669516433132
596;2048.86;20984.4;20301.718555253516;682.6814447464858
597;2051.85;21004.4;20307.789797394467;696.6102026055341
598;2054.84;21011.7;20314.046184043476;697.6538159565243
599;2057.83;21009.3;20320.48713143059;688.81286856941
600;2060.81;21004.4;20327.112062762386;677.2879372376156
601;2063.8;20928.1;20333.920408133563;594.1795918664357
602;2066.78;20913.3;20340.911604411678;572.3883955883211
603;2069.76;20899.1;20348.08509440608;551.0149055939182
604;2072.74;20786.8;20355.44032665;431.35967334999805
605;2075.72;20746.4;20362.97675518681;383.42324481319156
606;2078.7;20785.4;20370.693838373467;414.7061616265346
607;2081.68;20677.7;20378.591038401144;299.1089615988567
608;2084.65;20760.0;20386.667821608076;373.33217839192366
609;2087.63;20616.7;20394.923657323583;221.7763426764177
610;2090.6;20730.7;20403.35801861028;327.3419813897199
611;2093.58;20525.3;20411.970380748546;113.32961925145355
612;2096.55;20619.3;20420.76022229218;198.53977770781785
613;2099.52;20622.3;20429.727022928262;192.5729770717371
614;2102.49;20517.4;20438.870264329256;78.52973567074514
615;2105.46;20614.1;20448.189430093356;165.9105699066422
616;2108.43;20593.2;20457.68400460404;135.51599539595918
617;2111.39;20641.1;20467.353473903884;173.7465260961144
618;2114.36;20623.1;20477.19732539061;145.90267460938776
619;2117.32;20711.4;20487.215048199403;224.18495180059836
620;2120.29;20731.2;20497.406132924458;233.79386707554295
621;2123.25;20742.8;20507.770072401814;235.02992759818517
622;2126.21;20714.4;20518.30636180543;196.09363819457212
623;2129.17;20876.6;20529.014498659555;347.58550134044344
624;2132.13;20836.1;20539.893982449375;296.2060175506231
625;2135.09;20886.4;20550.944316135934;335.4556838640674
626;2138.05;20983.0;20562.16500564232;420.83499435767953
627;2141.0;21171.2;20573.555560246183;597.644439753818
628;2143.96;21167.0;20585.1154934335;581.8845065665009
629;2146.91;21107.9;20596.844324666676;511.0556753333258
630;2149.87;21268.6;20608.741579226964;659.8584207730346
631;2152.82;21317.8;20620.80678750616;696.9932124938387
632;2155.77;21300.6;20633.039486494643;667.5605135053556
633;2158.72;21380.8;20645.439220152708;735.3607798472913
634;2161.67;21538.0;20658.005539116242;879.9944608837577
635;2164.61;21575.2;20670.738001374713;904.4619986252874
636;2167.56;21657.6;20683.63617371751;973.9638262824883
637;2170.51;21661.4;20696.699631978645;964.7003680213566
638;2173.45;21663.6;20709.927961731762;953.6720382682361
639;2176.39;21745.4;20723.32075819749;1022.0792418025121
640;2179.34;21748.8;20736.877626133155;1011.9223738668443
641;2182.28;21786.8;20750.598180516863;1036.2018194831362
642;2185.22;21818.2;20764.48204644594;1053.71795355406
643;2188.16;21802.7;20778.528859379727;1024.171140620274
644;2191.09;21737.1;20792.738265314725;944.3617346852734
645;2194.03;21590.3;20807.109920489132;783.1900795108668
646;2196.97;21709.8;20821.643490584767;888.156509415232
647;2199.9;21659.3;20836.338649115314;822.9613508846851
648;2202.84;21673.6;20851.19507847602;822.4049215239793
649;2205.77;21627.3;20866.212469291728;761.0875307082715
650;2208.7;21601.3;20881.390520411336;719.9094795886631
651;2211.63;21528.1;20896.728938294586;631.371061705413
652;2214.56;21556.8;20912.22743660031;644.5725633996881
653;2217.49;21498.6;20927.885735301054;570.714264698945
654;2220.42;21400.1;20943.703560815065;456.3964391849331
655;2223.34;21341.3;20959.680645267734;381.6193547322655
656;2226.27;21377.6;20975.816725348395;401.7832746516033
657;2229.19;21284.7;20992.111541562594;292.5884584374071
658;2232.12;21241.9;21008.564838433686;233.33516156631595
659;2235.04;21230.9;21025.176363410912;205.72363658908944
660;2237.96;21214.0;21041.945866276863;172.05413372313706
661;2240.88;21195.7;21058.87309887135;136.8269011286502
662;2243.8;21206.9;21075.957814754714;130.94218524528696
663;2246.72;21229.4;21093.199768855542;136.2002311444594
664;2249.63;21190.6;21110.598717411845;80.00128258815312
665;2252.55;21213.7;21128.154418023627;85.5455819763738
666;2255.46;21174.1;21145.86662909089;28.23337090910718
667;2258.38;21181.6;21163.735109869092;17.864890130906133
668;2261.29;21149.9;21181.759619895995;-31.85961989599309
669;2264.2;21126.7;21199.93991888801;-73.2399188880081
670;2267.11;21209.7;21218.27544828395;-8.57544828394748
671;2270.02;21250.1;21236.76491785585;13.335082144149055
672;2272.93;21205.7;21255.406951707027;-49.70695170702675
673;2275.84;21354.9;21274.20017407414;80.69982592586166
674;2278.74;21410.8;21293.1427126214;117.657287378599
675;2281.65;21469.6;21312.232695820006;157.36730417999206
676;2284.56;21429.0;21331.46825331771;97.53174668228894
677;2287.46;21571.7;21350.84751633594;220.85248366406086
678;2290.36;21545.2;21370.368617071425;174.8313829285762
679;2293.26;21652.2;21390.029689929397;262.1703100706036
680;2296.16;21788.8;21409.828871063397;378.9711289366023
681;2299.06;21816.6;21429.764299248647;386.8357007513514
682;2301.96;21946.6;21449.83411705007;496.7658829499269
683;2304.86;22037.1;21470.03647090093;567.0635290990685
684;2307.75;22082.7;21490.369512202124;592.3304877978771
685;2310.65;22026.4;21510.831398025173;515.5686019748282
686;2313.54;22180.1;21531.420291364902;648.6797086350962
687;2316.43;22177.9;21552.134360371816;625.7656396281855
688;2319.33;22450.8;21572.97177968319;877.8282203168092
689;2322.22;22701.6;21593.93073019395;1107.669269806047
690;2325.11;23124.1;21615.009401577292;1509.0905984227065
691;2328.0;23470.1;21636.205994583088;1833.8940054169107
692;2330.88;23527.8;21657.518725052134;1870.2812749478653
693;2333.77;23112.0;21678.945827164145;1433.0541728358548
694;2336.66;22791.3;21700.485553801645;1090.8144461983538
695;2339.54;22629.6;21722.136172177692;907.4638278223065
696;2342.43;22776.1;21743.895960413487;1032.2040395865115
697;2345.31;22722.8;21765.76320570485;957.0367942951489
698;2348.19;22736.1;21787.736205569643;948.3637944303555
699;2351.07;22712.4;21809.81326709608;902.5867329039211
700;2353.95;22744.9;21831.992706856003;912.9072931439987
701;2356.83;22789.2;21854.2728504471;934.9271495528992
702;2359.71;22834.0;21876.65203259614;957.3479674038608
703;2362.58;22739.3;21899.128597379142;840.1714026208574
704;2365.46;22659.6;21921.700898445615;737.8991015543834
705;2368.33;22767.7;21944.367297846773;823.3327021532277
706;2371.21;22924.7;21967.12616501281;957.5738349871899
707;2374.08;22929.1;21989.975877607238;939.1241223927609
708;2376.95;22753.9;22012.914822869287;740.9851771307149
709;2379.82;22881.6;22035.941397429422;845.6586025705765
710;2382.69;22834.7;22059.054005327966;775.6459946720352
711;2385.56;22954.1;22082.251059061797;871.8489409382018
712;2388.42;22911.6;22105.530978884246;806.0690211157525
713;2391.29;22892.1;22128.892193767126;763.2078062328728
714;2394.15;22916.3;22152.333140742918;763.9668592570815
715;2397.02;22957.9;22175.852264476176;782.0477355238254
716;2399.88;22957.3;22199.448017271123;757.8519827288765
717;2402.74;22817.3;22223.118859252434;594.1811407475652
718;2405.61;22867.2;22246.86325812331;620.3367418766902
719;2408.47;22884.7;22270.679687528755;614.0203124712461
720;2411.32;22874.8;22294.56662731712;580.2333726828801
721;2414.18;22905.9;22318.52256347695;587.3774365230529
722;2417.04;22790.9;22342.545987799127;448.3540122008744
723;2419.9;22821.8;22366.6353979483;455.16460205170006
724;2422.75;22770.3;22390.78929607263;379.510703927368
725;2425.61;22768.4;22415.006188871936;353.39381112806586
726;2428.46;22834.6;22439.284586841106;395.3154131588926
727;2431.31;22865.9;22463.623004008958;402.2769959910438
728;2434.16;22817.4;22488.01995835745;329.3800416425511
729;2437.01;22784.3;22512.473971891297;271.8260281087023
730;2439.86;22826.8;22536.983569909;289.81643009099935
731;2442.71;22933.8;22561.54728042732;372.2527195726798
732;2445.55;22920.6;22586.163634361164;334.4363656388341
733;2448.4;22912.0;22610.831166347973;301.1688336520274
734;2451.25;22898.8;22635.548414369507;263.2515856304926
735;2454.09;22926.8;22660.313919419204;266.4860805807948
736;2456.93;22979.6;22685.126225123007;294.47377487699123
737;2459.77;22974.6;22709.983877771705;264.61612222829353
738;2462.62;23052.1;22734.885426600824;317.2145733991747
739;2465.45;23005.1;22759.82942349204;245.27057650795905
740;2468.29;23083.9;22784.81442349917;299.08557650083094
741;2471.13;23109.6;22809.83898412874;299.7610158712596
742;2473.97;23131.9;22834.9016658781;296.9983341219013
743;2476.8;23130.6;22860.00103224222;270.59896775777815
744;2479.64;23058.8;22885.13564968602;173.6643503139785
745;2482.47;23171.0;22910.304087380406;260.6959126195943
746;2485.3;23280.8;22935.504916232923;345.295083767076
747;2488.14;23335.3;22960.73670975806;374.5632902419384
748;2490.97;23437.3;22985.998044923253;451.3019550767458
749;2493.8;23284.7;23011.28750244156;273.4124975584418
750;2496.63;23527.0;23036.603667539046;490.396332460954
751;2499.46;23572.4;23061.945128175892;510.45487182410943
752;2502.28;23560.6;23087.310477216226;473.28952278377255
753;2505.11;23646.3;23112.69831262871;533.6016873712906
754;2507.93;23778.2;23138.10723711488;640.0927628851205
755;2510.76;23827.1;23163.53585871228;663.5641412877194
756;2513.58;23947.6;23188.98279185934;758.6172081406585
757;2516.4;24003.8;23214.446657630127;789.3533423698718
758;2519.22;24056.3;23239.926084684867;816.3739153151328
759;2522.04;24013.4;23265.419709577305;747.9802904226963
760;2524.86;24126.1;23290.92617702492;835.1738229750772
761;2527.68;24274.6;23316.44413922497;958.1558607750303
762;2530.49;24378.1;23341.972256726436;1036.1277432735624
763;2533.31;24332.3;23367.50919965987;964.790800340128
764;2536.12;24389.4;23393.053648517092;996.3463514829091
765;2538.94;24533.2;23418.604293437824;1114.595706562177
766;2541.75;24520.2;23444.159834525242;1076.0401654747584
767;2544.56;24626.2;23469.718983028473;1156.4810169715274
768;2547.37;24793.6;23495.280460957038;1298.319539042961
769;2550.18;24722.0;23520.843001885267;1201.1569981147331
770;2552.99;24737.4;23546.405352370675;1190.9946476293262
771;2555.8;24816.3;23571.966270982335;1244.3337290176642
772;2558.61;24805.7;23597.52452819924;1208.1754718007614
773;2561.41;24881.4;23623.078906943727;1258.3210930562745
774;2564.22;24934.2;23648.62820221987;1285.5717977801323
775;2567.02;24931.2;23674.171221614917;1257.0287783850836
776;2569.83;25038.4;23699.706785571827;1338.6932144281745
777;2572.63;24993.8;23725.233727103838;1268.5662728961615
778;2575.43;25054.2;23750.750892611108;1303.449107388893
779;2578.23;25025.3;23776.257141179452;1249.0428588205468
780;2581.03;25148.4;23801.75134492916;1346.6486550708432
781;2583.82;25014.3;23827.232388470926;1187.0676115290735
782;2586.62;25035.9;23852.699169881947;1183.200830118054
783;2589.42;25043.0;23878.150599110082;1164.849400889918
784;2592.21;25051.3;23903.58559793518;1147.7144020648193
785;2595.01;25014.6;23929.003099785572;1085.5969002144266
786;2597.8;25004.6;23954.402049566725;1050.197950433274
787;2600.59;25091.7;23979.781403040048;1111.918596959953
788;2603.38;24967.3;24005.140126468927;962.1598735310727
789;2606.17;25008.4;24030.47719723591;977.9228027640929
790;2608.96;24995.7;24055.791602345118;939.9083976548827
791;2611.75;25044.8;24081.082338579927;963.7176614200725
792;2614.54;25169.3;24106.348412122752;1062.9515878772472
793;2617.32;25099.8;24131.588838793177;968.211161206822
794;2620.11;25204.9;24156.80264504031;1048.097354959693
795;2622.89;25227.4;24181.988866995336;1045.4111330046653
796;2625.68;25257.3;24207.146551270424;1050.1534487295758
797;2628.46;25363.8;24232.274754931823;1131.5252450681764
798;2631.24;25412.7;24257.37254554732;1155.3274544526794
799;2634.02;25470.0;24282.439001999945;1187.5609980000554
800;2636.8;25553.9;24307.473214725986;1246.4267852740159
801;2639.58;25650.3;24332.47428603734;1317.8257139626585
802;2642.36;25744.0;24357.441330710168;1386.5586692898323
803;2645.13;26003.8;24382.373476698885;1621.4265233011138
804;2647.91;26069.4;24407.26986582347;1662.130134176532
805;2650.68;26165.8;24432.12965611814;1733.6703438818586
806;2653.46;26373.9;24456.952022238413;1916.9479777615888
807;2656.23;26525.7;24481.736156176496;2043.9638438235052
808;2659.0;26788.3;24506.48126909408;2281.8187309059176
809;2661.77;27001.4;24531.186592592483;2470.2134074075184
810;2664.54;27168.3;24555.85138109118;2612.44861890882
811;2667.31;27472.0;24580.47491371176;2891.5250862882385
812;2670.08;27697.6;24605.056495700297;3092.5435042997015
813;2672.84;27886.6;24629.595461218094;3257.0045387819046
814;2675.61;28202.4;24654.09117535189;3548.308824648113
815;2678.37;28490.0;24678.543035758463;3811.456964241537
816;2681.14;28726.0;24702.950475577665;4023.049524422335
817;2683.9;29049.3;24727.3129660639;4321.9870339361005
818;2686.66;29190.0;24751.630018702053;4438.369981297947
819;2689.42;29454.3;24775.90118819687;4678.39881180313
820;2692.18;29739.7;24800.126073636777;4939.573926363224
821;2694.94;29750.2;24824.304320894185;4925.895679105815
822;2697.7;29793.6;24848.435625237234;4945.164374762764
823;2700.46;29889.2;24872.519731192988;5016.680268807013
824;2703.21;29864.0;24896.556432740144;4967.443567259856
825;2705.97;29813.0;24920.545574024192;4892.454425975808
826;2708.72;29807.8;24944.487048865056;4863.312951134943
827;2711.48;29657.4;24968.38080000717;4689.019199992832
828;2714.23;29531.4;24992.226818828112;4539.173181171889
829;2716.98;29265.8;25016.025143595656;4249.774856404343
830;2719.73;29125.8;25039.77585796928;4086.0241420307175
831;2722.48;28893.7;25063.479088106218;3830.2209118937826
832;2725.23;28781.0;25087.135001023926;3693.8649989760743
833;2727.97;28605.6;25110.74380204204;3494.856197957957
834;2730.72;28425.1;25134.305733418827;3290.7942665811715
835;2733.47;28199.8;25157.821072361112;3041.9789276388874
836;2736.21;28040.6;25181.29012898365;2859.3098710163467
837;2738.95;27789.4;25204.713243820985;2584.686756179017
838;2741.7;27685.8;25228.090786000743;2457.7092139992565
839;2744.44;27418.7;25251.423150497416;2167.276849502585
840;2747.18;27307.0;25274.71075686258;2032.2892431374203
841;2749.92;27032.8;25297.95404632055;1734.8459536794508
842;2752.66;26925.3;25321.15348041852;1604.146519581478
843;2755.39;26908.0;25344.30953805213;1563.69046194787
844;2758.13;26760.8;25367.42271415845;1393.3772858415505
845;2760.87;26811.1;25390.493519311458;1420.6064806885406
846;2763.6;26649.2;25413.5224780189;1235.6775219811025
847;2766.34;26481.1;25436.510128994556;1044.5898710054425
848;2769.07;26394.0;25459.457023308987;934.5429766910129
849;2771.8;26394.3;25482.36372247864;911.9362775213594
850;2774.53;26219.1;25505.230797365366;713.8692026346325
851;2777.26;26306.0;25528.05882795036;777.9411720496391
852;2779.99;26245.3;25550.84840135349;694.4515986465085
853;2782.72;26246.0;25573.600112474014;672.3998875259858
854;2785.45;26218.1;25596.314563155705;621.7854368442931
855;2788.17;26249.8;25618.992361966306;630.8076380336934
856;2790.9;26133.9;25641.6341236914;492.2658763086001
857;2793.63;26137.1;25664.240469424625;472.85953057537336
858;2796.35;26139.8;25686.81202518227;452.98797481773
859;2799.07;26243.6;25709.349421709205;534.2505782907938
860;2801.79;26222.3;25731.853294280165;490.4467057198344
861;2804.51;26476.7;25754.324283512386;722.3757164876151
862;2807.23;26343.0;25776.763034927575;566.2369650724249
863;2809.95;26444.3;25799.170201271183;645.1297987288162
864;2812.67;26505.9;25821.546440951006;684.3535590489955
865;2815.39;26767.8;25843.892418826137;923.9075811738621
866;2818.1;26654.9;25866.208806599174;788.6911934008276
867;2820.82;26864.8;25888.49628521179;976.3037147882096
868;2823.53;26789.2;25910.755543492545;878.4444565074555
869;2826.24;26885.9;25932.987280033034;952.9127199669674
870;2828.96;27068.9;25955.192202209273;1113.7077977907284
871;2831.67;26976.7;25977.371026926397;999.3289730736033
872;2834.38;27132.6;25999.524482226592;1133.0755177734063
873;2837.09;27066.3;26021.653306145323;1044.6466938546764
874;2839.8;27155.4;26043.75824804881;1111.6417519511924
875;2842.5;27056.0;26065.840067749727;990.1599322502734
876;2845.21;27338.7;26087.899536177138;1250.800463822863
877;2847.92;27303.6;26109.937434161697;1193.6625658383018
878;2850.62;27282.9;26131.95455504205;1150.9454449579498
879;2853.32;27391.6;26153.95170409347;1237.6482959065288
880;2856.03;27394.9;26175.929698100656;1218.970301899346
881;2858.73;27261.1;26197.88936622481;1063.2106337751902
882;2861.43;27263.4;26219.83154981682;1043.568450183182
883;2864.13;27240.2;26241.757100859693;998.4428991403074
884;2866.83;27322.8;26263.666881772104;1059.1331182278955
885;2869.53;27122.4;26285.561764957165;836.8382350428365
886;2872.22;27178.8;26307.4426334093;871.3573665906988
887;2874.92;27088.9;26329.310378491293;759.5896215087087
888;2877.62;26947.0;26351.165900279477;595.8340997205232
889;2880.31;26929.1;26373.010106446076;556.0898935539226
890;2883.0;27106.6;26394.84391062165;711.7560893783484
891;2885.7;26911.7;26416.66823199764;495.0317680023618
892;2888.39;26749.1;26438.48399688302;310.6160031169784
893;2891.08;26873.2;26460.292136537068;412.90786346293316
894;2893.77;26761.9;26482.093585325198;279.8064146748038
895;2896.46;26691.3;26503.889281741907;187.41071825809195
896;2899.15;26621.4;26525.68016707973;95.71983292027289
897;2901.83;26620.8;26547.467184505305;73.33281549469393
898;2904.52;26663.2;26569.251278142463;93.94872185753775
899;2907.2;26663.1;26591.033392848367;72.06660715163162
900;2909.89;26683.4;26612.814474419658;70.58552558034353
901;2912.57;26558.4;26634.595469373628;-76.19546937362611
902;2915.25;26672.7;26656.3773249334;16.322675066599913
903;2917.93;26747.2;26678.16022712938;69.03977287061934
904;2920.61;26672.8;26699.944362155184;-27.144362155184353
905;2923.3;26771.0;26721.72991689481;49.27008310519159
906;2925.97;26791.3;26743.51680706009;47.783192939910805
907;2928.65;26866.2;26765.30494885556;100.89505114444182
908;2931.33;26811.8;26787.09425896357;24.705741036428662
909;2934.0;26924.6;26808.884655075413;115.71534492458522
910;2936.68;26910.4;26830.676055129414;79.72394487058773
911;2939.35;27030.1;26852.468378221056;177.63162177894264
912;2942.03;27042.3;26874.261544243043;168.03845575695595
913;2944.7;27160.2;26896.05547486438;264.1445251356199
914;2947.37;27199.2;26917.850093434452;281.34990656554874
915;2950.04;27320.7;26939.645325944075;381.0546740559257
916;2952.71;27387.8;26961.441101197554;426.35889880244576
917;2955.38;27405.9;26983.23735180972;422.6626481902822
918;2958.05;27335.9;27005.034014658977;330.8659853410245
919;2960.71;27464.2;27026.831030850335;437.36896914966565
920;2963.38;27624.6;27048.62834479746;575.9716552025384
921;2966.04;27517.2;27070.425905287688;446.77409471231294
922;2968.71;27603.9;27092.22366686806;511.67633313194165
923;2971.37;27623.8;27114.02158855333;509.77841144667036
924;2974.03;27644.7;27135.819634475014;508.8803655249867
925;2976.69;27716.4;27157.6177738624;558.7822261376023
926;2979.35;27580.0;27179.415981033566;400.5840189664341
927;2982.01;27600.0;27201.21423589441;398.7857641055889
928;2984.67;27588.3;27223.01252235665;365.2874776433491
929;2987.33;27585.9;27244.810828319845;341.08917168015614
930;2989.98;27411.8;27266.609145336428;145.19085466357137
931;2992.64;27502.6;27288.407468369678;214.19253163032045
932;2995.3;27355.6;27310.205793834783;45.39420616521602
933;2997.95;27430.9;27332.004120288835;98.89587971116634
