;Raman shift;Intensity;Baseline;Corrected Intensity
0;51.3749;6482.67;6840.52313046433;-357.8531304643302
1;55.1317;6482.67;6895.0565310308975;-412.38653103089746
2;58.8869;6954.56;6949.586356644696;4.973643355304375
3;62.6406;7917.89;7004.104912611511;913.785087388489
4;66.3907;8868.78;7058.604504286862;1810.1754957131388
5;70.1415;11267.1;7113.077446164118;4154.022553835883
6;73.8907;14018.2;7167.516070838397;6850.683929161603
7;77.6384;16011.2;7221.912752445038;8789.287247554963
8;81.3847;18523.8;7276.259933626216;11247.540066373784
9;85.1273;21265.8;7330.5501449169715;13935.249855083028
10;88.8705;23245.6;7384.776029327742;15860.823970672256
11;92.6122;24083.6;7438.930369221459;16644.66963077854
12;96.3525;24592.6;7493.006105569294;17099.593894430705
13;100.091;24381.4;7546.9963457891145;16834.403654210888
14;103.826;24160.1;7600.894368294729;16559.20563170527
15;107.562;23800.4;7654.6936198439735;16145.706380156029
16;111.296;23277.3;7708.387712786736;15568.912287213263
17;115.029;22328.8;7761.97042092997;14566.829579070029
18;118.758;21806.1;7815.435673769747;13990.664326230251
19;122.488;21502.1;7868.777546470433;13633.322453529567
20;126.216;21278.1;7921.990254103026;13356.109745896973
21;129.941;20576.0;7975.0681480717485;12600.931851928251
22;133.666;20380.6;8028.0057133419095;12352.594286658088
23;137.39;19810.2;8080.7975608881425;11729.402439111858
24;141.113;19495.0;8133.438425211023;11361.561574788977
25;144.831;19275.7;8185.923158105146;11089.776841894854
26;148.551;18923.0;8238.246724980725;10684.753275019275
27;152.269;18793.8;8290.404202145737;10503.395797854262
28;155.983;18654.7;8342.390772755689;10312.309227244312
29;159.698;18409.2;8394.20172500004;10014.99827499996
30;163.409;18113.4;8445.832450191345;9667.567549808657
31;167.121;17980.8;8497.278439792131;9483.521560207868
32;170.832;17786.4;8548.535281940613;9237.864718059389
33;174.538;17684.2;8599.598659610208;9084.601340389792
34;178.246;17494.8;8650.464348152982;8844.335651847017
35;181.952;17385.2;8701.128213767004;8684.071786232997
36;185.655;17466.6;8751.586211093698;8715.0137889063
37;189.358;17664.2;8801.834381615197;8862.365618384803
38;193.057;18416.0;8851.868853963766;9564.131146036234
39;196.757;19851.7;8901.68584539532;10950.014154604682
40;200.454;24125.0;8951.28166880708;15173.71833119292
41;204.151;26019.4;9000.652746596408;17018.74725340359
42;207.845;22254.6;9049.795652897841;13204.804347102157
43;211.539;17325.3;9098.707132033387;8226.592867966612
44;215.23;16302.2;9147.384060373093;7154.8159396269075
45;218.921;16281.8;9195.823396552933;7085.976603447067
46;222.609;16372.8;9244.022170757033;7128.777829242967
47;226.297;16485.4;9291.977484029278;7193.422515970724
48;229.982;16522.7;9339.686508701328;7183.013491298672
49;233.668;16700.6;9387.146489039067;7313.453510960931
50;237.35;16681.4;9434.354741138506;7247.045258861495
51;241.032;16748.1;9481.308654230184;7266.791345769814
52;244.711;16957.1;9528.005690015088;7429.09430998491
53;248.391;16940.9;9574.443382862113;7366.456617137888
54;252.067;17138.8;9620.619341431091;7518.180658568908
55;255.744;17363.6;9666.531248046418;7697.06875195358
56;259.417;17500.6;9712.176860214297;7788.423139785702
57;263.089;17782.7;9757.554012411614;8025.145987588387
58;266.761;17982.2;9802.66061699949;8179.5393830005105
59;270.43;18164.4;9847.494666590495;8316.905333409506
60;274.099;17865.6;9892.054235592588;7973.54576440741
61;277.765;17640.6;9936.337481582781;7704.2625184172175
62;281.43;17453.6;9980.342641873542;7473.257358126457
63;285.095;17041.1;10024.068030819953;7017.031969180045
64;288.756;16677.8;10067.512037509663;6610.287962490336
65;292.416;16318.6;10110.673121200627;6207.926878799373
66;296.077;15902.2;10153.549807253681;5748.65019274632
67;299.734;15540.0;10196.140683108926;5343.859316891074
68;303.39;15176.6;10238.444393692955;4938.155606307046
69;307.046;14927.8;10280.459637370952;4647.340362629047
70;310.699;14651.0;10322.185161889656;4328.814838110344
71;314.351;14565.0;10363.619761469197;4201.380238530803
72;318.003;14342.2;10404.762273617845;3937.4377263821552
73;321.651;14238.3;10445.611577857671;3792.688422142328
74;325.298;14272.0;10486.166593085118;3785.8334069148823
75;328.944;14238.9;10526.426276123511;3712.4737238764883
76;332.59;14139.2;10566.389621654502;3572.810378345499
77;336.233;14129.3;10606.055661484466;3523.244338515533
78;339.874;14095.2;10645.423463147887;3449.776536852114
79;343.514;14106.4;10684.492129411688;3421.907870588311
80;347.153;13984.8;10723.260797540552;3261.5392024594476
81;350.792;13864.4;10761.728639018236;3102.6713609817634
82;354.428;13901.8;10799.894857943893;3101.9051420561063
83;358.062;13872.1;10837.758689443377;3034.3413105566233
84;361.694;13795.7;10875.319399661583;2920.380600338418
85;365.326;13699.2;10912.576285086818;2786.623714913183
86;368.958;13638.0;10949.528671411184;2688.4713285888156
87;372.586;13696.4;10986.175912193017;2710.2240878069824
88;376.213;13586.4;11022.517387875365;2563.8826121246348
89;379.839;13575.8;11058.552506003509;2517.2474939964904
90;383.463;13463.9;11094.280699761548;2369.6193002384516
91;387.086;13383.8;11129.70142750606;2254.09857249394
92;390.707;13322.0;11164.81417128979;2157.1858287102095
93;394.327;13378.3;11199.61843570648;2178.68156429352
94;397.947;13372.8;11234.11374692171;2138.686253078289
95;401.564;13242.6;11268.299652887874;1974.3003471121265
96;405.18;13253.6;11302.175722944225;1951.4242770557757
97;408.794;13202.3;11335.741546173018;1866.5584538269813
98;412.407;13180.8;11368.996731170742;1811.803268829257
99;416.018;13120.8;11401.940905199466;1718.859094800533
100;419.628;13181.9;11434.573713639278;1747.3262863607215
101;423.237;13053.2;11466.894819058856;1586.3051809411445
102;426.844;13187.3;11498.903901500134;1688.3960984998648
103;430.449;13124.9;11530.600656868097;1594.2993431319028
104;434.054;13156.7;11561.98479795168;1594.7152020483209
105;437.657;13179.1;11593.056053482807;1586.043946517193
106;441.258;13175.7;11623.814168140547;1551.885831859454
107;444.858;13195.9;11654.258902464408;1541.641097535592
108;448.457;13251.8;11684.390032512742;1567.4099674872577
109;452.054;13225.7;11714.207349760307;1511.4926502396938
110;455.65;13329.0;11743.710661355959;1585.289338644041
111;459.244;13270.0;11772.899789563477;1497.1002104365234
112;462.837;13365.2;11801.774572499524;1563.4254275004769
113;466.429;13307.4;11830.334863251757;1477.0651367482424
114;470.019;13417.1;11858.580530542084;1558.5194694579168
115;473.605;13386.7;11886.51145786306;1500.1885421369407
116;477.193;13528.4;11914.127544292427;1614.2724557075726
117;480.779;13582.1;11941.428703909807;1640.6712960901932
118;484.363;13671.1;11968.414866937535;1702.685133062465
119;487.946;13668.7;11995.08598000464;1673.6140199953606
120;491.528;13695.7;12021.442006766998;1674.2579932330027
121;495.108;13851.8;12047.482927616626;1804.3170723833737
122;498.687;13970.2;12073.208739688107;1896.9912603118937
123;502.263;14084.8;12098.619458159197;1986.180541840802
124;505.839;14125.0;12123.715117177548;2001.2848828224523
125;509.414;14345.9;12148.49577075261;2197.4042292473896
126;512.987;14356.8;12172.961492906681;2183.838507093318
127;516.559;14443.1;12197.11237963609;2245.9876203639105
128;520.127;14499.2;12220.948548775541;2278.2514512244597
129;523.697;14516.6;12244.470140619618;2272.129859380382
130;527.264;14592.4;12267.677318245418;2324.7226817545816
131;530.831;14532.8;12290.570267451327;2242.2297325486725
132;534.396;14553.0;12313.149197282952;2239.8508027170483
133;537.957;14419.9;12335.414339208191;2084.485660791808
134;541.519;14240.0;12357.365947093438;1882.634052906562
135;545.08;14123.1;12379.00429564993;1744.0957043500712
136;548.64;13923.2;12400.32967841524;1522.87032158476
137;552.195;13793.8;12421.342406367909;1372.4575936320907
138;555.752;13465.4;12442.042805715155;1023.3571942848448
139;559.307;13416.2;12462.431216388783;953.7687836112182
140;562.859;13262.2;12482.507988554153;779.692011445848
141;566.412;13221.9;12502.273481914312;719.6265180856881
142;569.963;13141.2;12521.728063969216;619.4719360307845
143;573.51;13047.6;12540.87210941508;506.7278905849198
144;577.059;12997.3;12559.705999142823;437.59400085717607
145;580.606;12937.4;12578.23011911063;359.16988088936887
146;584.149;12791.7;12596.444859652638;195.2551403473626
147;587.693;12795.6;12614.350614694673;181.24938530532745
148;591.236;12817.2;12631.947780115112;185.2522198848892
149;594.776;12700.7;12649.236753604817;51.46324639518389
150;598.316;12710.3;12666.217934707165;44.08206529283416
151;601.852;12785.4;12682.891723480165;102.50827651983491
152;605.39;13308.9;12699.258520422642;609.641479577358
153;608.924;14072.3;12715.318727058495;1356.9812729415044
154;612.458;13955.3;12731.07275100804;1224.2272489919596
155;615.991;13286.0;12746.521013461395;539.4789865386047
156;619.521;12861.3;12761.663947850953;99.63605214904601
157;623.051;12987.4;12776.501993003889;210.89800699611078
158;626.578;13037.3;12791.035588743742;246.26441125625752
159;630.106;13088.1;12805.265177003026;282.83482299697425
160;633.63;13112.2;12819.191202176895;293.00879782310585
161;637.155;13206.7;12832.814111488851;373.88588851114946
162;640.677;13054.1;12846.134355092478;207.9656449075228
163;644.199;12877.1;12859.152386880207;17.94761311979346
164;647.718;12905.6;12871.868662824125;33.731337175875524
165;651.237;12916.6;12884.28363907578;32.316360924220135
166;654.754;12972.6;12896.397772124032;76.20222787596867
167;658.27;13047.1;12908.211518780892;138.88848121910814
168;661.784;12933.9;12919.725336620395;14.17466337960468
169;665.296;13024.7;12930.939684605444;93.76031539455653
170;668.808;13102.7;12941.855021840684;160.84497815931718
171;672.318;13105.8;12952.47180836835;153.32819163165004
172;675.828;13176.1;12962.790505839122;213.30949416087788
173;679.334;13150.0;12972.811577436953;177.18842256304742
174;682.839;13371.9;12982.535488478876;389.36451152112386
175;686.345;13375.6;12991.962706053806;383.6372939461944
176;689.848;13554.9;13001.093701144287;553.8062988557122
177;693.351;13585.7;13009.92894856923;575.771051430771
178;696.851;13698.8;13018.468928685588;680.331071314411
179;700.349;13717.8;13026.714127608031;691.0858723919682
180;703.848;13810.3;13034.665038254532;775.6349617454671
181;707.344;13944.6;13042.322160453927;902.2778395460737
182;710.838;13944.2;13049.686001791397;894.5139982086039
183;714.331;14100.1;13056.757078874898;1043.3429211251023
184;717.825;14152.8;13063.535917257517;1089.264082742482
185;721.315;14291.6;13070.023052925768;1221.5769470742325
186;724.804;14347.1;13076.219032758783;1270.8809672412171
187;728.294;14395.4;13082.124415851471;1313.2755841485287
188;731.78;14431.6;13087.739774007547;1343.8602259924537
189;735.265;14653.3;13093.065692163475;1560.2343078365247
190;738.749;14635.9;13098.102768694316;1537.7972313056835
191;742.233;14896.9;13102.851617577477;1794.048382422523
192;745.714;15147.7;13107.312868168325;2040.387131831676
193;749.194;15414.0;13111.487167762712;2302.5128322372875
194;752.672;15825.0;13115.375184060358;2709.624815939642
195;756.149;16259.4;13118.977607786097;3140.4223922139026
196;759.626;17187.4;13122.295156761009;4065.1048432389925
197;763.101;19286.3;13125.328580210386;6160.971419789614
198;766.573;25108.0;13128.078668010568;11979.921331989432
199;770.045;45718.7;13130.546271647607;32588.15372835239
200;773.515;64515.0;13132.732362406752;51382.26763759325
201;776.984;64515.0;13134.638237454788;51380.36176254521
202;780.452;64515.0;13136.265707781162;51378.73429221884
203;783.92;43688.1;13137.617098178933;30550.482901821066
204;787.385;23549.1;13138.695247228497;10410.404752771501
205;790.848;19518.0;13139.50329901507;6378.49670098493
206;794.31;19126.1;13140.044501727914;5986.055498272084
207;797.771;20065.8;13140.322167341246;6925.477832658753
208;801.231;21493.8;13140.33966768983;8353.46033231017
209;804.689;18641.8;13140.100443863192;5501.699556136808
210;808.146;16222.1;13139.60802048545;3082.4919795145506
211;811.601;15815.7;13138.865977197707;2676.8340228022935
212;815.056;15546.9;13137.877924466004;2409.022075533996
213;818.508;15476.1;13136.64749952471;2339.4525004752904
214;821.96;15359.2;13135.178363698411;2224.0216363015898
215;825.41;15230.0;13133.474201706218;2096.525798293782
216;828.859;15222.0;13131.538720507446;2090.4612794925542
217;832.307;15212.4;13129.375648026675;2083.024351973325
218;835.753;15150.6;13126.988733093089;2023.6112669069116
219;839.198;15101.6;13124.381745366109;1977.2182546338918
220;842.642;15070.9;13121.558474741263;1949.3415252587365
221;846.084;14975.6;13118.522730886254;1857.0772691137463
222;849.525;15004.6;13115.278342962201;1889.321657037799
223;852.964;14966.0;13111.829158700994;1854.1708412990065
224;856.403;14979.4;13108.179044727725;1871.2209552722743
225;859.84;14852.0;13104.3318862092;1747.6681137908
226;863.276;14817.8;13100.291587024425;1717.5084129755742
227;866.71;14935.3;13096.062068529081;1839.2379314709178
228;870.141;14958.6;13091.647269253926;1866.952730746074
229;873.573;14955.2;13087.051146122092;1868.1488538779086
230;877.003;15077.8;13082.277674726243;1995.522325273756
231;880.432;15006.3;13077.33084934052;1928.969150659479
232;883.86;15131.1;13072.21468419429;2058.88531580571
233;887.287;15148.7;13066.933212806613;2081.766787193388
234;890.712;15159.8;13061.490489285383;2098.3095107146164
235;894.134;15279.0;13055.890588556163;2223.1094114438365
236;897.556;15410.1;13050.137606527614;2359.962393472386
237;900.978;15419.8;13044.23566133948;2375.564338660519
238;904.398;15505.4;13038.188894731125;2467.2111052688742
239;907.816;15507.9;13032.001472197546;2475.898527802454
240;911.232;15728.6;13025.677583905846;2702.922416094154
241;914.648;15663.6;13019.221444782106;2644.3785552178942
242;918.063;15687.2;13012.637296781635;2674.5627032183656
243;921.476;15654.2;13005.929408303517;2648.270591696484
244;924.886;15618.2;12999.102074492457;2619.0979255075436
245;928.297;15587.6;12992.15961697587;2595.44038302413
246;931.707;15500.4;12985.10638357213;2515.293616427869
247;935.115;15395.2;12977.946748054012;2417.253251945989
248;938.52;15338.0;12970.685109347214;2367.314890652786
249;941.925;15540.7;12963.325890549968;2577.374109450033
250;945.33;15490.1;12955.873538433638;2534.2264615663626
251;948.731;15673.8;12948.332525543326;2725.467474456673
252;952.133;15995.9;12940.707349766386;3055.1926502336137
253;955.533;16558.6;12933.002536244841;3625.597463755157
254;958.93;17256.6;12925.222640672648;4331.377359327351
255;962.328;18420.1;12917.372254999727;5502.727745000271
256;965.723;19985.9;12909.456014489771;7076.44398551023
257;969.118;21953.8;12901.47860943375;9052.321390566249
258;972.512;23936.7;12893.444800887057;11043.255199112944
259;975.903;25836.2;12885.359440428287;12950.840559571714
260;979.294;26925.4;12877.227490068577;14048.172509931424
261;982.682;27016.9;12869.05404132747;14147.845958672531
262;986.071;26494.3;12860.84432620622;13633.45567379378
263;989.458;25382.8;12852.603718184533;12530.196281815466
264;992.843;24094.3;12844.337727076669;11249.96227292333
265;996.228;22863.8;12836.051987998846;10027.748012001153
266;999.609;21651.2;12827.752248566909;8823.447751433092
267;1002.99;20718.0;12819.44435667417;7898.55564332583
268;1006.37;19664.3;12811.13424844841;6853.165751551589
269;1009.75;18733.9;12802.82793900297;5931.072060997032
270;1013.13;17974.4;12794.531511982843;5179.868488017159
271;1016.5;17352.8;12786.251110343746;4566.548889656253
272;1019.88;16753.9;12777.992928840078;3975.9070711599234
273;1023.25;16167.6;12769.763207891718;3397.8367921082827
274;1026.62;15922.3;12761.568227677613;3160.731772322386
275;1029.99;15437.0;12753.414302355071;2683.5856976449286
276;1033.37;15233.2;12745.307777688718;2487.8922223112822
277;1036.73;14927.1;12737.255026279028;2189.844973720972
278;1040.1;14623.7;12729.262445605387;1894.4375543946135
279;1043.47;14433.2;12721.336455045632;1711.863544954369
280;1046.83;14292.8;12713.483492921969;1579.3165070780306
281;1050.19;14226.2;12705.710014675235;1520.4899853247662
282;1053.56;14029.6;12698.022491539423;1331.5775084605775
283;1056.92;13968.1;12690.427409953418;1277.6725900465826
284;1060.28;13985.3;12682.931269671879;1302.3687303281204
285;1063.63;13882.7;12675.540583226179;1207.1594167738222
286;1066.99;13828.2;12668.261876171378;1159.9381238286223
287;1070.35;13802.6;12661.101686134125;1141.4983138658754
288;1073.7;13667.7;12654.066562340433;1013.6334376595678
289;1077.05;13554.9;12647.163065431292;907.7369345687075
290;1080.41;13603.9;12640.397766184018;963.5022338159815
291;1083.76;13388.2;12633.777244453297;754.4227555467041
292;1087.1;13269.9;12627.308089728831;642.5919102711687
293;1090.45;13189.2;12620.996899044545;568.2031009554557
294;1093.8;13181.8;12614.85027586027;566.9497241397294
295;1097.14;13143.1;12608.87482931785;534.2251706821498
296;1100.49;13111.7;12603.077174228629;508.62282577137194
297;1103.83;13048.7;12597.463930746193;451.2360692538077
298;1107.17;13083.4;12592.041724110355;491.3582758896446
299;1110.51;13062.1;12586.817184073278;475.28281592672283
300;1113.85;13111.4;12581.796945300695;529.6030546993043
301;1117.19;13078.6;12576.98764721117;501.6123527888303
302;1120.53;13069.1;12572.395934519287;496.7040654807133
303;1123.86;13131.6;12568.028456955744;563.571543044256
304;1127.19;13066.8;12563.89186921828;502.9081307817196
305;1130.53;13088.8;12559.992831640337;528.8071683596627
306;1133.86;12988.6;12556.338009584444;432.2619904155563
307;1137.19;13061.8;12552.93407370119;508.8659262988094
308;1140.51;12948.3;12549.787698963768;398.5123010362313
309;1143.84;12972.8;12546.905565434025;425.89443456597473
310;1147.17;12934.7;12544.294357158926;390.40564284107495
311;1150.49;12885.6;12541.960762444369;343.63923755563155
312;1153.82;12904.4;12539.911473500308;364.48852649969194
313;1157.14;12825.1;12538.153185973093;286.9468140269073
314;1160.46;12828.3;12536.692599153956;291.6074008460437
315;1163.78;12828.0;12535.536415203585;292.4635847964146
316;1167.1;12726.2;12534.691339198736;191.50866080126434
317;1170.42;12729.7;12534.16407914079;195.53592085921082
318;1173.73;12656.7;12533.961344946214;122.73865505378672
319;1177.05;12602.4;12534.089848486823;68.3101515131766
320;1180.36;12496.1;12534.556302861814;-38.45630286181404
321;1183.67;12520.3;12535.367421853478;-15.067421853478663
322;1186.98;12479.7;12536.529535065643;-56.82953506564263
323;1190.29;12523.9;12538.048821578608;-14.148821578608477
324;1193.6;12428.6;12539.930892745615;-111.33089274561462
325;1196.91;12530.7;12542.181218573194;-11.481218573193473
326;1200.21;12423.8;12544.804156872267;-121.00415687226814
327;1203.52;12493.1;12547.80395075639;-54.70395075638953
328;1206.82;12458.8;12551.18363450759;-92.38363450759061
329;1210.12;12405.3;12554.945695915434;-149.64569591543477
330;1213.42;12467.1;12559.091699856981;-91.99169985698063
331;1216.72;12490.1;12563.621716248797;-73.52171624879702
332;1220.02;12545.6;12568.534896010382;-22.934896010381635
333;1223.32;12439.7;12573.829655579282;-134.12965557928146
334;1226.61;12563.3;12579.504182273442;-16.20418227344271
335;1229.91;12682.7;12585.555323455565;97.14467654443615
336;1233.2;12568.1;12591.979764608575;-23.879764608574988
337;1236.49;12671.4;12598.774192186842;72.62580781315773
338;1239.78;12655.4;12605.935054085885;49.46494591411465
339;1243.07;12793.4;12613.45879892748;179.9412010725191
340;1246.36;12850.3;12621.341875828048;228.95812417195157
341;1249.65;12923.4;12629.580735703401;293.8192642965987
342;1252.94;12886.1;12638.171831758938;247.92816824106194
343;1256.22;12939.0;12647.111620138312;291.888379861688
344;1259.5;12992.8;12656.396559464445;336.4034405355542
345;1262.78;12960.1;12666.023111279135;294.0768887208651
346;1266.07;13059.2;12675.987740488205;383.2122595117962
347;1269.34;12980.9;12686.28691493824;294.6130850617592
348;1272.62;13030.2;12696.917106307945;333.28289369205595
349;1275.9;13125.6;12707.874789222145;417.72521077785495
350;1279.17;13042.2;12719.156441638488;323.0435583615126
351;1282.45;13146.2;12730.758545691871;415.4414543081293
352;1285.72;13178.4;12742.677586747628;435.72241325237155
353;1288.99;13193.7;12754.910054325504;438.78994567449627
354;1292.26;13230.1;12767.452442302465;462.6475576975354
355;1295.53;13297.0;12780.301248943368;516.6987510566323
356;1298.8;13189.0;12793.45297713953;395.54702286046995
357;1302.07;13229.7;12806.904134949255;422.7958650507462
358;1305.34;13248.0;12820.65123438631;427.34876561368947
359;1308.6;13226.0;12834.69079169242;391.3092083075808
360;1311.86;13241.8;12849.019327382784;392.7806726172148
361;1315.12;13239.9;12863.633365885702;376.26663411429763
362;1318.39;13254.0;12878.52943555727;375.4705644427304
363;1321.65;13261.7;12893.704068516248;367.99593148375243
364;1324.9;13271.8;12909.153800636097;362.64619936390227
365;1328.16;13282.2;12924.875171470228;357.3248285297723
366;1331.42;13288.6;12940.864724198516;347.735275801484
367;1334.67;13366.7;12957.119005574079;409.58099442592174
368;1337.92;13311.9;12973.634565827382;338.26543417261746
369;1341.18;13390.2;12990.407959284703;399.79204071529784
370;1344.43;13391.2;13007.435743654958;383.76425634504267
371;1347.68;13453.3;13024.714480644987;428.58551935501237
372;1350.93;13444.7;13042.240735799267;402.45926420073374
373;1354.17;13521.6;13060.01107894812;461.5889210518799
374;1357.42;13648.1;13078.022083946464;570.0779160535367
375;1360.67;13610.1;13096.270329265097;513.8296707349036
376;1363.91;13805.9;13114.752399075589;691.1476009244107
377;1367.15;13758.0;13133.464882687807;624.5351173121926
378;1370.39;13865.8;13152.404376323098;713.3956236769009
379;1373.63;13901.3;13171.567482448143;729.7325175518563
380;1376.87;13884.1;13190.950810663575;693.1491893364255
381;1380.11;13922.9;13210.550977867342;712.3490221326574
382;1383.34;14018.6;13230.364607888874;788.2353921111262
383;1386.58;14102.3;13250.388331681079;851.9116683189204
384;1389.81;14200.1;13270.618788079211;929.4812119207891
385;1393.04;14329.2;13291.052624437636;1038.1473755623647
386;1396.28;14367.0;13311.68649740552;1055.3135025944794
387;1399.51;14387.3;13332.517074013493;1054.7829259865066
388;1402.74;14430.0;13353.541031845305;1076.458968154695
389;1405.96;14472.7;13374.755059032535;1097.9449409674653
390;1409.19;14603.3;13396.155854471346;1207.144145528653
391;1412.41;14573.6;13417.740128037345;1155.8598719626552
392;1415.64;14600.9;13439.504601677581;1161.3953983224183
393;1418.86;14609.4;13461.446008897694;1147.9539911023057
394;1422.08;14662.2;13483.561094817269;1178.6389051827318
395;1425.3;14755.1;13505.846616035426;1249.2533839645748
396;1428.52;14646.7;13528.299340937656;1118.4006590623449
397;1431.74;14714.6;13550.91605040199;1163.6839495980112
398;1434.96;14714.7;13573.693536490457;1141.0064635095441
399;1438.17;14715.4;13596.628602901928;1118.7713970980712
400;1441.39;14775.3;13619.718064745339;1155.5819352546605
401;1444.6;14792.9;13642.958748317327;1149.9412516826724
402;1447.81;14700.8;13666.347491470351;1034.4525085296482
403;1451.02;14681.9;13689.881143556264;992.0188564437358
404;1454.23;14729.7;13713.556564271441;1016.1434357285598
405;1457.44;14679.0;13737.370623232442;941.6293767675579
406;1460.65;14751.4;13761.320200217253;990.0797997827467
407;1463.85;14738.3;13785.402184420142;952.8978155798577
408;1467.06;14855.0;13809.613474936164;1045.3865250638355
409;1470.26;15089.7;13833.950980389352;1255.7490196106482
410;1473.47;15318.7;13858.411619857592;1460.2883801424086
411;1476.67;15611.4;13882.992324976249;1728.407675023751
412;1479.87;15748.0;13907.690041983564;1840.3099580164362
413;1483.07;15689.1;13932.501734401849;1756.5982655981516
414;1486.26;15711.7;13957.424384156504;1754.2756158434968
415;1489.46;15784.3;13982.454990738903;1801.8450092610965
416;1492.65;15850.7;14007.59057118317;1843.1094288168315
417;1495.85;15971.6;14032.828160541867;1938.7718394581334
418;1499.04;16277.1;14058.16481229865;2218.9351877013505
419;1502.23;16705.3;14083.597599324881;2621.702400675118
420;1505.42;17069.7;14109.12361668128;2960.576383318721
421;1508.61;17538.1;14134.73998564558;3403.360014354419
422;1511.8;17969.1;14160.443857101287;3808.6561428987116
423;1514.99;18308.2;14186.232415965495;4121.967584034506
424;1518.17;18452.6;14212.102885241855;4240.497114758144
425;1521.36;18398.6;14238.052529153694;4160.547470846304
426;1524.54;18413.0;14264.078654329307;4148.921345670693
427;1527.72;18395.7;14290.178609002453;4105.521390997548
428;1530.9;18236.8;14316.349782896097;3920.450217103902
429;1534.08;18284.3;14342.589606788417;3941.7103932115824
430;1537.26;18277.9;14368.895550662095;3909.0044493379064
431;1540.44;18280.0;14395.2651239169;3884.734876083099
432;1543.61;18049.4;14421.69587504264;3627.7041249573613
433;1546.79;17975.8;14448.18539137647;3527.6146086235294
434;1549.96;17863.7;14474.731296532576;3388.9687034674243
435;1553.13;17775.3;14501.331249401283;3273.9687505987167
436;1556.3;17576.4;14527.98294276259;3048.4170572374114
437;1559.47;17355.0;14554.684102136192;2800.3158978638075
438;1562.64;17093.6;14581.432483525952;2512.1675164740464
439;1565.81;16997.1;14608.225870938883;2388.874129061116
440;1568.98;16913.9;14635.062073503652;2278.8379264963496
441;1572.14;16933.2;14661.938924237653;2271.261075762348
442;1575.31;16864.2;14688.85427894666;2175.3457210533415
443;1578.47;16935.0;14715.80601614905;2219.1939838509497
444;1581.63;16930.2;14742.792036116649;2187.407963883352
445;1584.79;16795.4;14769.810261313207;2025.5897386867946
446;1587.95;16635.2;14796.85863607655;1838.3413639234514
447;1591.11;16506.8;14823.935125000391;1682.8648749996082
448;1594.27;16487.9;14851.037711061846;1636.862288938155
449;1597.42;16469.7;14878.164394066684;1591.5356059333171
450;1600.58;16543.7;14905.313190189285;1638.386809810716
451;1603.73;16554.4;14932.482131519393;1621.9178684806084
452;1606.88;16629.0;14959.669266530615;1669.3307334693855
453;1610.03;16627.8;14986.87265991572;1640.9273400842794
454;1613.18;16609.1;15014.090393060773;1595.0096069392257
455;1616.33;16629.2;15041.320563761092;1587.879436238909
456;1619.48;16716.8;15068.561285762089;1648.2387142379102
457;1622.63;16598.3;15095.81068868796;1502.4893113120397
458;1625.77;16569.7;15123.066918645278;1446.633081354723
459;1628.92;16524.3;15150.328136765502;1373.9718632344975
460;1632.06;16607.0;15177.59251864641;1429.40748135359
461;1635.2;16483.4;15204.858253625494;1278.541746374507
462;1638.34;16545.1;15232.123545334334;1312.9764546656643
463;1641.48;16601.3;15259.386610189918;1341.9133898100808
464;1644.62;16734.4;15286.645677738983;1447.7543222610184
465;1647.76;16791.6;15313.89899094739;1477.7010090526092
466;1650.89;16753.4;15341.144807258534;1412.255192741468
467;1654.03;16873.1;15368.38139889282;1504.718601107179
468;1657.16;16925.4;15395.607052193196;1529.7929478068054
469;1660.29;16972.3;15422.820068549785;1549.4799314502143
470;1663.43;17065.9;15450.018764650646;1615.8812353493558
471;1666.56;17154.1;15477.201472678626;1676.898527321373
472;1669.68;17146.8;15504.366540975376;1642.4334590246235
473;1672.81;17413.6;15531.512334651528;1882.0876653484702
474;1675.94;17619.0;15558.637235242037;2060.3627647579633
475;1679.06;17802.6;15585.739643102712;2216.8603568972867
476;1682.19;18144.6;15612.817979192994;2531.7820208070043
477;1685.31;18399.9;15639.870686640917;2760.029313359084
478;1688.43;18559.8;15666.896233892323;2892.9037661076763
479;1691.55;18424.7;15693.893116993333;2730.8068830066677
480;1694.67;18423.7;15720.859860919094;2702.8401390809067
481;1697.79;18319.8;15747.795017952822;2572.0049820471777
482;1700.91;18472.3;15774.697167406126;2697.6028325938732
483;1704.03;18636.4;15801.56491431067;2834.835085689332
484;1707.14;18567.8;15828.396890674137;2739.403109325862
485;1710.26;18688.3;15855.191756852555;2833.108243147444
486;1713.37;18674.7;15881.948200595956;2792.7517994040445
487;1716.48;18544.2;15908.664937985466;2635.5350620145346
488;1719.59;18372.3;15935.34071302971;2436.95928697029
489;1722.7;18222.7;15961.974296092654;2260.7257039073465
490;1725.81;18055.4;15988.564481907853;2066.835518092148
491;1728.92;17873.3;16015.110087816118;1858.1899121838815
492;1732.02;17834.0;16041.609951826616;1792.3900481733835
493;1735.12;17894.6;16068.062930530414;1826.5370694695848
494;1738.23;17766.2;16094.467898442457;1671.7321015575435
495;1741.33;17718.6;16120.823748343058;1597.77625165694
496;1744.43;17821.0;16147.129389729833;1673.8706102701672
497;1747.53;17727.7;16173.383748078168;1554.316251921833
498;1750.63;17824.4;16199.585765602147;1624.8142343978543
499;1753.73;17713.8;16225.734400059018;1488.065599940981
500;1756.83;17816.2;16251.828625454158;1564.3713745458426
501;1759.92;17812.3;16277.867430673596;1534.4325693264036
502;1763.01;17859.7;16303.849820247062;1555.8501797529389
503;1766.11;17827.9;16329.774814048611;1498.1251859513904
504;1769.2;17935.9;16355.641447510796;1580.2585524892056
505;1772.29;18043.8;16381.44877104741;1662.3512289525897
506;1775.38;18114.4;16407.19585087481;1707.2041491251912
507;1778.47;18134.8;16432.88176983287;1701.918230167128
508;1781.56;18300.8;16458.505627833478;1842.2943721665215
509;1784.64;18284.1;16484.0665418077;1800.033458192298
510;1787.73;18349.4;16509.563647109546;1839.8363528904556
511;1790.81;18378.1;16534.99609709335;1843.1039029066487
512;1793.9;18363.1;16560.36306351179;1802.736936488207
513;1796.98;18422.4;16585.66373654858;1836.736263451421
514;1800.06;18428.1;16610.897324414796;1817.202675585202
515;1803.14;18533.4;16636.06305368888;1897.336946311123
516;1806.22;18472.3;16661.160169121285;1811.1398308787138
517;1809.29;18533.0;16686.187934435828;1846.8120655641724
518;1812.37;18541.8;16711.145631467716;1830.6543685322831
519;1815.44;18444.0;16736.032560520274;1707.9674394797257
520;1818.52;18435.2;16760.848040203364;1674.351959796637
521;1821.59;18425.1;16785.59140620651;1639.5085937934891
522;1824.66;18327.1;16810.26201096274;1516.8379890372598
523;1827.73;18358.4;16834.859223300155;1523.540776699847
524;1830.8;18290.6;16859.38242721522;1431.217572784779
525;1833.87;18264.0;16883.8310219398;1380.1689780601992
526;1836.94;18288.1;16908.204421017927;1379.895578982072
527;1840.0;18235.2;16932.502051795298;1302.6979482047027
528;1843.07;18201.8;16956.723355416565;1245.0766445834342
529;1846.13;18228.8;16980.867786053353;1247.9322139466458
530;1849.2;18166.6;17004.934810328043;1161.6651896719559
531;1852.26;18206.1;17028.92390734233;1177.176092657668
532;1855.32;18141.7;17052.83456781456;1088.865432185441
533;1858.38;18269.1;17076.666294234823;1192.4337057651755
534;1861.43;18181.2;17100.41859998187;1080.7814000181315
535;1864.49;18146.8;17124.09101035877;1022.708989641229
536;1867.55;18268.0;17147.683061476397;1120.3169385236033
537;1870.6;18256.7;17171.1942996727;1085.5057003272996
538;1873.66;18321.1;17194.624282488792;1126.4757175112063
539;1876.71;18396.9;17217.972578320834;1178.9274216791673
540;1879.76;18454.9;17241.238766829745;1213.6612331702563
541;1882.81;18505.4;17264.422439465703;1240.9775605342984
542;1885.86;18539.4;17287.523199815485;1251.8768001845165
543;1888.91;18617.7;17310.54066387565;1307.1593361243504
544;1891.95;18748.7;17333.474460161517;1415.225539838484
545;1895.0;18776.2;17356.32423025997;1419.8757697400324
546;1898.04;18862.8;17379.08962991015;1483.7103700898479
547;1901.09;18888.3;17401.77032904996;1486.5296709500399
548;1904.13;18958.1;17424.366012454393;1533.7339875456055
549;1907.17;19009.8;17446.876379763733;1562.9236202362663
550;1910.21;19088.4;17469.301145955586;1619.098854044416
551;1913.25;19185.3;17491.640041636783;1693.659958363216
552;1916.29;19099.4;17513.892813605136;1585.5071863948651
553;1919.32;19133.1;17536.059225595058;1597.0407744049407
554;1922.36;19196.1;17558.139057196007;1637.9609428039912
555;1925.39;19153.0;17580.132103967844;1572.8678960321558
556;1928.43;19131.2;17602.03817785002;1529.1618221499812
557;1931.46;18999.0;17623.857106510655;1375.1428934893447
558;1934.49;18920.3;17645.588732909495;1274.7112670905044
559;1937.52;18946.3;17667.2329137577;1279.0670862422994
560;1940.55;18901.0;17688.789518513535;1212.2104814864651
561;1943.58;18884.9;17710.258429425932;1174.6415705740692
562;1946.61;18830.2;17731.63954086592;1098.5604591340816
563;1949.63;18861.8;17752.93275895092;1108.86724104908
564;1952.66;18798.9;17774.138000783954;1024.7619992160471
565;1955.68;18851.6;17795.255194556714;1056.3448054432847
566;1958.7;18893.8;17816.2842787085;1077.5157212915
567;1961.72;18831.2;17837.225202242047;993.9747977579536
568;1964.74;18801.0;17858.077924935245;942.9220750647546
569;1967.76;18783.2;17878.842416505715;904.3575834942858
570;1970.78;18840.1;17899.518656100296;940.5813438997029
571;1973.8;18710.4;17920.106631909402;790.293368090599
572;1976.81;18679.1;17940.606341529245;738.4936584707539
573;1979.83;18717.8;17961.017790458965;756.7822095410338
574;1982.84;18662.6;17981.34099158263;681.259008417368
575;1985.85;18789.9;18001.57596535212;788.3240346478815
576;1988.87;18785.9;18021.722739031884;764.1772609681175
577;1991.88;18875.8;18041.781347769625;834.0186522303738
578;1994.89;18759.6;18061.751834354807;697.8481656451913
579;1997.89;18919.0;18081.634249917068;837.3657500829322
580;2000.9;18859.6;18101.428652564522;758.1713474354765
581;2003.91;18949.6;18121.13510877893;828.4648912210687
582;2006.91;18934.9;18140.753692623755;794.1463073762461
583;2009.91;19003.0;18160.2844864471;842.7155135528992
584;2012.92;19083.3;18179.727580538518;903.5724194614813
585;2015.92;19005.7;18199.083073614704;806.6169263852971
586;2018.92;19196.4;18218.35107342808;978.0489265719225
587;2021.92;19095.2;18237.531695797203;857.668304202798
588;2024.92;19139.0;18256.62506632113;882.3749336788715
589;2027.91;19242.9;18275.631319175576;967.2686808244252
590;2030.91;19187.0;18294.55059736002;892.4494026399807
591;2033.9;19400.3;18313.3830535466;1086.9169464533989
592;2036.9;19348.9;18332.12884933196;1016.7711506680425
593;2039.89;19259.7;18350.788157181894;908.9118428181064
594;2042.88;19343.9;18369.3611597299;974.5388402701028
595;2045.88;19369.1;18387.848048698575;981.2519513014231
596;2048.86;19298.9;18406.2490255559;892.6509744441028
597;2051.85;19377.2;18424.56430158234;952.63569841766
598;2054.84;19304.9;18442.79409698488;862.1059030151227
599;2057.83;19335.8;18460.938641496836;874.8613585031635
600;2060.81;19383.8;18478.998173472573;904.8018265274259
601;2063.8;19370.6;18496.97294001506;873.6270599849377
602;2066.78;19293.2;18514.863197275277;778.3368027247234
603;2069.76;19320.9;18532.669210140455;788.2307898595463
604;2072.74;19204.2;18550.391251281177;653.8087487188241
605;2075.72;19245.8;18568.029601250324;677.7703987496752
606;2078.7;19130.1;18585.584547138853;544.5154528611456
607;2081.68;19124.7;18603.056382815415;521.6436171845853
608;2084.65;19171.9;18620.445407593805;551.4545924061968
609;2087.63;19059.0;18637.751926004243;421.2480739957573
610;2090.6;19033.6;18654.976248091494;378.62375190850435
611;2093.58;19033.1;18672.118688112787;360.98131188721163
612;2096.55;19065.6;18689.17956411158;376.4204358884199
613;2099.52;18994.9;18706.159197741134;288.7408022588679
614;2102.49;18971.7;18723.05791441891;248.6420855810902
615;2105.46;18985.4;18739.876042449767;245.52395755023463
616;2108.43;19054.9;18756.61391262497;298.28608737503237
617;2111.39;19099.3;18773.271858191016;326.0281418089835
618;2114.36;19143.4;18789.850215377257;353.5497846227445
619;2117.32;19106.9;18806.349323673312;300.5506763266894
620;2120.29;19085.9;18822.769526104283;263.13047389571875
621;2123.25;19250.3;18839.111168700765;411.18883129923415
622;2126.21;19120.1;18855.37460012466;264.72539987533673
623;2129.17;19195.3;18871.56017314976;323.7398268502402
624;2132.13;19310.7;18887.66824319708;423.0317568029204
625;2135.09;19301.0;18903.699168925035;397.30083107496466
626;2138.05;19432.7;18919.653313222338;513.0466867776631
627;2141.0;19527.6;18935.5310429507;592.0689570492978
628;2143.96;19458.3;18951.3327301023;506.96726989770104
629;2146.91;19620.0;18967.05875258997;652.9412474100318
630;2149.87;19692.6;18982.709493396225;709.8905066037732
631;2152.82;19746.2;18998.285342032992;747.9146579670087
632;2155.77;19725.0;19013.786695111092;711.2133048889082
633;2158.72;19919.4;19029.21395672048;890.186043279522
634;2161.67;19930.1;19044.567538063235;885.5324619367639
635;2164.61;19844.1;19059.84785924329;784.2521407567074
636;2167.56;19890.4;19075.05534921988;815.34465078012
637;2170.51;20008.7;19090.190444794753;918.509555205248
638;2173.45;19970.4;19105.253590923094;865.1464090769077
639;2176.39;20124.8;19120.245241745182;1004.554758254817
640;2179.34;20001.2;19135.165860052755;866.0341399472454
641;2182.28;20116.4;19150.01591868308;966.3840813169227
642;2185.22;20119.6;19164.79589913375;954.8041008662476
643;2188.16;20078.4;19179.5062925662;898.8937074338028
644;2191.09;20100.4;19194.147599689877;906.2524003101244
645;2194.03;20093.3;19208.720330203163;884.5796697968362
646;2196.97;20061.7;19223.225002866944;838.4749971330566
647;2199.9;20095.3;19237.6621452879;857.6378547120985
648;2202.84;20012.2;19252.03229345746;760.1677065425392
649;2205.77;19865.3;19266.33599194341;598.9640080565878
650;2208.7;19888.2;19280.573792915216;607.6262070847843
651;2211.63;19918.4;19294.74625453197;623.6537454680329
652;2214.56;19823.1;19308.853941029018;514.2460589709808
653;2217.49;19879.1;19322.89742287824;556.2025771217595
654;2220.42;19768.8;19336.877275693954;431.922724306045
655;2223.34;19606.9;19350.79408065251;256.10591934749027
656;2226.27;19619.3;19364.64842324947;254.65157675052978
657;2229.19;19665.7;19378.44089154144;287.25910845856197
658;2232.12;19704.9;19392.17207613154;312.7279238684605
659;2235.04;19639.2;19405.842570495483;233.35742950451822
660;2237.96;19536.2;19419.45297123624;116.7470287637625
661;2240.88;19660.3;19433.003877290343;227.29612270965663
662;2243.8;19530.0;19446.495888761798;83.50411123820231
663;2246.72;19529.7;19459.92960802756;69.77039197244085
664;2249.63;19558.4;19473.305638299633;85.09436170036861
665;2252.55;19465.0;19486.624583487723;-21.624583487722703
666;2255.46;19592.1;19499.887048352477;92.21295164752155
667;2258.38;19504.7;19513.09342162495;-8.39342162495086
668;2261.29;19552.9;19526.24409295833;26.655907041669707
669;2264.2;19607.8;19539.339368155535;68.46063184446393
670;2267.11;19533.6;19552.379553286013;-18.77955328601456
671;2270.02;19585.3;19565.364955103825;19.935044896174077
672;2272.93;19565.8;19578.2956927553;-12.495692755299387
673;2275.84;19640.6;19591.171885586104;49.428114413894946
674;2278.74;19683.9;19603.993528109957;79.90647189004449
675;2281.65;19788.6;19616.76061533484;171.83938466515974
676;2284.56;19804.4;19629.473143067782;174.92685693221938
677;2287.46;19818.8;19642.131108834208;176.66889116579114
678;2290.36;19839.8;19654.734511908788;185.0654880912116
679;2293.26;19946.7;19667.283353332878;279.41664666712313
680;2296.16;20041.9;19679.777635998482;362.1223640015196
681;2299.06;20079.6;19692.217365591758;387.38263440824085
682;2301.96;20105.1;19704.602551420056;400.497448579943
683;2304.86;20207.3;19716.93320666454;490.3667933354591
684;2307.75;20218.6;19729.209348511362;489.39065148863665
685;2310.65;20335.6;19741.430999050324;594.1690009496742
686;2313.54;20347.6;19753.59818526514;594.0018147348601
687;2316.43;20502.1;19765.710940081197;736.3890599188016
688;2319.33;20579.3;19777.7693023639;801.5306976360989
689;2322.22;20841.6;19789.773318342526;1051.8266816574724
690;2325.11;21253.7;19801.72304226166;1451.9769577383413
691;2328.0;21694.3;19813.618538884137;1880.6814611158625
692;2330.88;21638.7;19825.459887492558;1813.240112507443
693;2333.77;21257.4;19837.24718617632;1420.1528138236827
694;2336.66;20926.0;19848.980551157212;1077.0194488427878
695;2339.54;20735.8;19860.660112858557;875.1398871414422
696;2342.43;20705.1;19872.286012473865;832.8139875261331
697;2345.31;20745.0;19883.858399948036;861.1416000519639
698;2348.19;20796.1;19895.37743355411;900.7225664458892
699;2351.07;20688.4;19906.843280176527;781.5567198234749
700;2353.95;20728.9;19918.25611570695;810.6438842930511
701;2356.83;20738.9;19929.616123852593;809.2838761474086
702;2359.71;20841.3;19940.923496427087;900.376503572912
703;2362.58;20856.2;19952.17843333688;904.0215666631193
704;2365.46;20672.9;19963.38114349218;709.5188565078206
705;2368.33;20783.1;19974.5318448434;808.5681551565976
706;2371.21;20865.7;19985.630762436125;880.0692375638755
707;2374.08;20844.3;19996.678129401615;847.6218705983847
708;2376.95;20843.2;20007.674187671808;835.5258123281928
709;2379.82;20799.6;20018.619187654876;780.9808123451221
710;2382.69;20742.3;20029.513388114225;712.7866118857746
711;2385.56;20844.1;20040.35705562304;803.7429443769579
712;2388.42;20794.0;20051.15046388237;742.8495361176283
713;2391.29;20724.0;20061.8938946307;662.1061053693011
714;2394.15;20714.0;20072.587637034998;641.4123629650021
715;2397.02;20666.7;20083.23198688329;583.4680131167115
716;2399.88;20663.8;20093.827246377718;569.9727536222817
717;2402.74;20702.2;20104.373723555098;597.8262764449028
718;2405.61;20606.4;20114.871732151958;491.52826784804347
719;2408.47;20647.4;20125.321591883083;522.0784081169186
720;2411.32;20588.2;20135.723627378535;452.476372621466
721;2414.18;20710.9;20146.07816848916;564.8218315108425
722;2417.04;20477.6;20156.38554959056;321.21445040943945
723;2419.9;20521.3;20166.64611070654;354.65388929345863
724;2422.75;20540.6;20176.860195073044;363.7398049269541
725;2425.61;20525.8;20187.028149472546;338.77185052745335
726;2428.46;20387.9;20197.150324324914;190.74967567508793
727;2431.31;20434.2;20207.227073437727;226.97292656227364
728;2434.16;20476.4;20217.258752526042;259.1412474739591
729;2437.01;20432.9;20227.24571957464;205.65428042536223
730;2439.86;20445.1;20237.1883351597;207.91166484029964
731;2442.71;20491.8;20247.086961913938;244.71303808606172
732;2445.55;20307.8;20256.941964549176;50.85803545082308
733;2448.4;20411.0;20266.753710224362;144.2462897756377
734;2451.25;20366.4;20276.522566607022;89.87743339297958
735;2454.09;20257.4;20286.24890280713;-28.84890280712716
736;2456.93;20330.6;20295.933088833426;34.66691116657239
737;2459.77;20414.8;20305.575206494123;109.22479350587673
738;2462.62;20366.1;20315.17533794409;50.92466205590972
739;2465.45;20350.3;20324.733566430437;25.566433569561923
740;2468.29;20330.6;20334.249975709525;-3.6499757095261884
741;2471.13;20406.1;20343.724649793374;62.37535020662472
742;2473.97;20442.0;20353.157636230764;88.84236376923582
743;2476.8;20407.1;20362.54898319422;44.55101680577718
744;2479.64;20496.8;20371.898739744684;124.90126025531572
745;2482.47;20590.6;20381.206955388592;209.39304461140637
746;2485.3;20593.3;20390.473680881383;202.82631911861608
747;2488.14;20544.7;20399.698969072422;145.00103092757854
748;2490.97;20655.4;20408.88287483933;246.51712516066982
749;2493.8;20733.2;20418.025454509738;315.174545490263
750;2496.63;20609.6;20427.126766876416;182.47323312358276
751;2499.46;20646.4;20436.18687388388;210.21312611612302
752;2502.28;20742.9;20445.205839301354;297.69416069864747
753;2505.11;20851.9;20454.183729000182;397.71627099981924
754;2507.93;20719.8;20463.12061182863;256.67938817136746
755;2510.76;20855.2;20472.016560612126;383.1834393878744
756;2513.58;20916.0;20480.871650742873;435.1283492571274
757;2516.4;20932.4;20489.68596144491;442.714038555092
758;2519.22;20994.6;20498.459576293557;496.14042370644165
759;2522.04;21135.1;20507.192583291268;627.907416708731
760;2524.86;21151.1;20515.88507540189;635.2149245981091
761;2527.68;21182.2;20524.537151868328;657.662848131673
762;2530.49;21123.6;20533.148918285628;590.451081714371
763;2533.31;21338.1;20541.72048682546;796.3795131745392
764;2536.12;21324.1;20550.25197556399;773.8480244360071
765;2538.94;21364.9;20558.74351054119;806.1564894588118
766;2541.75;21317.1;20567.195225535484;749.904774464514
767;2544.56;21425.3;20575.60726238688;849.6927376131207
768;2547.37;21413.3;20583.9797704344;829.320229565601
769;2550.18;21384.1;20592.31290751399;791.7870924860072
770;2552.99;21407.7;20600.606839754786;807.0931602452147
771;2555.8;21508.0;20608.861741203793;899.1382587962071
772;2558.61;21312.9;20617.07779397894;695.822206021061
773;2561.41;21476.7;20625.255189189535;851.4448108104662
774;2564.22;21367.9;20633.39412490311;734.5058750968929
775;2567.02;21368.0;20641.494807701634;726.5051922983657
776;2569.83;21456.3;20649.557451512126;806.7425484878731
777;2572.63;21495.8;20657.58227752664;838.2177224733605
778;2575.43;21446.7;20665.569515004656;781.1304849953449
779;2578.23;21412.9;20673.519401587822;739.3805984121791
780;2581.03;21363.3;20681.432182729077;681.8678172709224
781;2583.82;21325.8;20689.308111275157;636.4918887248423
782;2586.62;21349.8;20697.147446891482;652.6525531085172
783;2589.42;21268.7;20704.95045560839;563.7495443916123
784;2592.21;21250.3;20712.717409982724;537.5825900172749
785;2595.01;21182.9;20720.44858820882;462.4514117911822
786;2597.8;21012.8;20728.144273856822;284.65572614317716
787;2600.59;21149.8;20735.804755121375;413.99524487862436
788;2603.38;21028.1;20743.43032304367;284.66967695632775
789;2606.17;20941.8;20751.021272804843;190.77872719515653
790;2608.96;21095.4;20758.577902432728;336.8220975672739
791;2611.75;20962.2;20766.100511862933;196.09948813706796
792;2614.54;20880.1;20773.589404399274;106.51059560072463
793;2617.32;20901.0;20781.04488530654;119.95511469346093
794;2620.11;20875.1;20788.467260914607;86.63273908539122
795;2622.89;20849.0;20795.85683875289;53.143161247109674
796;2625.68;20867.7;20803.213927217123;64.48607278287818
797;2628.46;20826.9;20810.538835234453;16.361164765548892
798;2631.24;20924.4;20817.83187237688;106.56812762312256
799;2634.02;20813.7;20825.093348379985;-11.393348379984673
800;2636.8;20877.4;20832.323574045036;45.07642595496509
801;2639.58;20881.8;20839.522746353745;42.277253646254394
802;2642.36;20942.4;20846.69106273858;95.70893726142094
803;2645.13;20841.9;20853.82872105477;-11.928721054769994
804;2647.91;20953.9;20860.93592011461;92.96407988539067
805;2650.68;20965.6;20868.01273956247;97.58726043752904
806;2653.46;21107.7;20875.059259972357;232.64074002764391
807;2656.23;21025.0;20882.075562894148;142.92443710585212
808;2659.0;21110.3;20889.061732204118;221.23826779588126
809;2661.77;21214.6;20896.01785320777;318.58214679222874
810;2664.54;21192.2;20902.94401342297;289.25598657703085
811;2667.31;21345.0;20909.840303553392;435.159696446608
812;2670.08;21258.6;20916.706817195256;341.89318280474254
813;2672.84;21443.3;20923.543652296372;519.7563477036274
814;2675.61;21466.9;20930.35091022346;536.5490897765412
815;2678.37;21501.7;20937.128697540797;564.5713024592042
816;2681.14;21567.3;20943.877126178137;623.4228738218626
817;2683.9;21556.3;20950.596313710932;605.7036862890673
818;2686.66;21727.7;20957.28638394885;770.4136160511516
819;2689.42;21631.4;20963.94746675859;667.4525332414123
820;2692.18;21777.8;20970.579699710994;807.2203002890055
821;2694.94;21831.8;20977.183227051417;854.6167729485824
822;2697.7;21796.7;20983.758201097404;812.9417989025969
823;2700.46;21918.0;20990.304782712665;927.6952172873353
824;2703.21;21897.6;20996.82314089031;900.7768591096901
825;2705.97;21839.4;21003.313453900384;836.0865460996174
826;2708.72;21909.0;21009.7759090207;899.2240909793
827;2711.48;21900.7;21016.210701889933;884.4892981100675
828;2714.23;21932.7;21022.618037139004;910.081962860997
829;2716.98;21996.4;21028.99812824371;967.4018717562903
830;2719.73;21869.0;21035.351197780667;833.6488022193334
831;2722.48;21934.0;21041.677478000493;892.3225219995074
832;2725.23;21865.4;21047.977209490284;817.4227905097177
833;2727.97;21964.8;21054.25064176034;910.5493582396593
834;2730.72;21926.7;21060.49803249517;866.2019675048323
835;2733.47;21826.2;21066.719648484755;759.4803515152453
836;2736.21;21740.6;21072.915765181086;667.684234818913
837;2738.95;21721.8;21079.086665630944;642.7133343690548
838;2741.7;21702.8;21085.232639557944;617.5673604420554
839;2744.44;21594.1;21091.353983112822;502.74601688717667
840;2747.18;21524.4;21097.45099862199;426.9490013780123
841;2749.92;21579.1;21103.523993439314;475.5760065606846
842;2752.66;21565.3;21109.573279188146;455.72672081185374
843;2755.39;21500.6;21115.599172247592;385.0008277524066
844;2758.13;21391.6;21121.601993554024;269.99800644597417
845;2760.87;21431.8;21127.58206789381;304.2179321061885
846;2763.6;21333.1;21133.5397227533;199.56027724669912
847;2766.34;21461.4;21139.475288661;321.9247113390011
848;2769.07;21328.0;21145.389098141026;182.6109018589741
849;2771.8;21222.7;21151.281486936714;71.41851306328681
850;2774.53;21312.8;21157.152792617504;155.64720738249525
851;2777.26;21279.3;21163.003353467022;116.29664653297732
852;2779.99;21329.7;21168.833509325334;160.86649067466715
853;2782.72;21331.3;21174.643601195457;156.65639880454182
854;2785.45;21238.7;21180.43397168907;58.26602831092896
855;2788.17;21393.6;21186.20496498441;207.3950350155901
856;2790.9;21381.7;21191.95692584237;189.74307415763178
857;2793.63;21444.1;21197.69020109778;246.40979890221934
858;2796.35;21428.3;21203.405139482897;224.89486051710264
859;2799.07;21457.1;21209.102092194076;247.9979078059223
860;2801.79;21485.4;21214.781412676602;270.61858732339897
861;2804.51;21537.0;21220.443456855723;316.5565431442774
862;2807.23;21551.6;21226.08858336285;325.5114166371495
863;2809.95;21767.1;21231.717153994945;535.3828460050536
864;2812.67;21776.7;21237.32953380408;539.37046619592
865;2815.39;21897.2;21242.926093196143;654.2739068038572
866;2818.1;21881.7;21248.507207970706;633.1927920292947
867;2820.82;21891.4;21254.07326047008;637.3267395299226
868;2823.53;21842.3;21259.62463936849;582.6753606315106
869;2826.24;22091.1;21265.16173971342;825.9382602865771
870;2828.96;22162.9;21270.68496237912;892.215037620881
871;2831.67;22188.9;21276.194716499205;912.7052835007962
872;2834.38;22206.4;21281.691420129435;924.7085798705666
873;2837.09;22173.7;21287.175500452602;886.5244995473986
874;2839.8;22248.6;21292.64739389856;955.9526061014403
875;2842.5;22310.4;21298.107545762392;1012.2924542376095
876;2845.21;22221.9;21303.556410898713;918.3435891012887
877;2847.92;22243.0;21308.994454285035;934.0055457149647
878;2850.62;22276.0;21314.42215008229;961.5778499177104
879;2853.32;22466.6;21319.83998179145;1146.760018208548
880;2856.03;22228.1;21325.248442529282;902.8515574707162
881;2858.73;22246.3;21330.648036880128;915.6519631198717
882;2861.43;22214.3;21336.039278456858;878.2607215431417
883;2864.13;22238.6;21341.422690028838;897.1773099711609
884;2866.83;22158.6;21346.798803148053;811.8011968519459
885;2869.53;22151.8;21352.168158338245;799.6318416617542
886;2872.22;22029.6;21357.53130424117;672.0686957588296
887;2874.92;22199.4;21362.88879749488;836.5112025051203
888;2877.62;21894.0;21368.241201458124;525.7587985418759
889;2880.31;21992.7;21373.58908785474;619.110912145261
890;2883.0;21842.1;21378.933033666144;463.16696633385436
891;2885.7;21847.0;21384.273622064844;462.72637793515605
892;2888.39;21777.4;21389.611440855002;387.78855914499945
893;2891.08;21751.1;21394.947082468043;356.1529175319556
894;2893.77;21644.1;21400.28114321327;243.81885678672916
895;2896.46;21704.0;21405.614222961503;298.3857770384966
896;2899.15;21538.3;21410.946924021748;127.35307597825158
897;2901.83;21492.9;21416.27985168686;76.62014831314082
898;2904.52;21515.7;21421.613612523233;94.08638747676741
899;2907.2;21412.3;21426.948813863433;-14.648813863434043
900;2909.89;21461.4;21432.286063980882;29.113936019119137
901;2912.57;21526.9;21437.625824807375;89.27417519262599
902;2915.25;21432.4;21442.968558565834;-10.568558565832063
903;2917.93;21394.4;21448.314728371897;-53.91472837189576
904;2920.61;21562.0;21453.664691761325;108.33530823867477
905;2923.3;21476.3;21459.018267661744;17.281732338255097
906;2925.97;21471.1;21464.37527608412;6.724723915878712
907;2928.65;21589.6;21469.73553721222;119.86446278778021
908;2931.33;21526.2;21475.098871297043;51.101128702957794
909;2934.0;21584.0;21480.465099788235;103.53490021176549
910;2936.68;21640.4;21485.83404464644;154.56595535356246
911;2939.35;21721.3;21491.205528867642;230.09447113235728
912;2942.03;21678.1;21496.579376993486;181.52062300651232
913;2944.7;21798.8;21501.955415866552;296.8445841334469
914;2947.37;21982.0;21507.333474144612;474.6665258553876
915;2950.04;21903.6;21512.713383453876;390.88661654612224
916;2952.71;22062.9;21518.094980167207;544.8050198327946
917;2955.38;22086.0;21523.478104566315;562.5218954336851
918;2958.05;22103.2;21528.86260238096;574.3373976190414
919;2960.71;22197.4;21534.24832496611;663.1516750338924
920;2963.38;22300.8;21539.63512942009;761.1648705799089
921;2966.04;22308.1;21545.022879472734;763.0771205272649
922;2968.71;22423.3;21550.411446465503;872.8885535344962
923;2971.37;22390.9;21555.800709370596;835.099290629405
924;2974.03;22541.6;21561.190555889094;980.4094441109046
925;2976.69;22544.7;21566.58088207307;978.1191179269299
926;2979.35;22602.6;21571.971593778686;1030.6284062213126
927;2982.01;22525.7;21577.362606643266;948.3373933567345
928;2984.67;22638.0;21582.753846610427;1055.246153389573
929;2987.33;22603.9;21588.14524910715;1015.754750892851
930;2989.98;22667.3;21593.53676011287;1073.7632398871283
931;2992.64;22747.1;21598.928335764565;1148.1716642354331
932;2995.3;22781.0;21604.31994293683;1176.6800570631713
933;2997.95;22597.4;21609.711559985975;987.6884400140261
