#Acq. time (s)=	60
#Accumulations=	10
#Range (cm-¹)=	50...3000
#Windows=	1
#Auto scanning=	Off
#Autofocus=	Off
#AutoExposure=	Off
#Spike filter=	Multiple accum.
#Delay time (s)=	0
#Binning=	1
#Readout mode=	Signal
#DeNoise=	Off
#ICS correction=	Off
#Dark correction=	Off
#Inst. Process=	Off
#Detector Gain=	High Sensitivity
#Detector ADC=	1 MHz Ultra 
#Detector temperature (°C)=	-70.2
#Instrument=	LabRAM HR Evol
#Detector=	Synapse
#Objective=	x100
#Grating=	300gr_mm
#ND Filter=	50%
#Laser (nm)=	532
#Slit=	100.021
#Hole=	1000.03
#AFM=	Off
#Collection=	Microscope
#StageXY=	Marzhauser
#StageZ=	Marzhauser
#X (µm)=	0
#Y (µm)=	0
#Z (µm)=	-639.4
#Full time(mm:ss)=	10:08
#Project=	NiGe_900_
#Sample=	1
#Site=	
#Title=	50%_100x_60sx10
#Remark=	
#Date=	22.05.2026 13:31
#Acquired=	22.05.2026 13:31:37
#AxisType[0]=Intens
#AxisUnit[0]=Cnt
#AxisType[1]=Spectr
#AxisUnit[1]=1/cm
51.3749	6322
55.1317	6322
58.8869	6884.78
62.6406	8172.22
66.3907	9665.22
70.1415	12259.1
73.8907	15333.7
77.6384	17887.6
81.3847	21038.7
85.1273	24924
88.8705	28995.7
92.6122	31664.1
96.3525	31842.2
100.091	30189.3
103.826	28687.6
107.562	27819
111.296	26738.3
115.029	25748.6
118.758	25122
122.488	25022.9
126.216	25116.2
129.941	25457.3
133.666	25691.7
137.39	25331.7
141.113	24356.7
144.831	23067.6
148.551	22087.6
152.269	21392.2
155.983	20851.2
159.698	20616.6
163.409	20438.7
167.121	20359.7
170.832	20423.8
174.538	20476.8
178.246	20365.9
181.952	19905.8
185.655	19721.6
189.358	19968.3
193.057	21379.7
196.757	24757.4
200.454	32495.9
204.151	35469.6
207.845	27672.1
211.539	20197.1
215.23	18165.4
218.921	17588
222.609	17364.2
226.297	17103.6
229.982	16989
233.668	16980.1
237.35	16915.7
241.032	16826.6
244.711	16745.2
248.391	16776.3
252.067	16785.9
255.744	16794.3
259.417	17020.2
263.089	17115.9
266.761	17190.8
270.43	17239.2
274.099	17033
277.765	17004.1
281.43	17025.3
285.095	17072
288.756	17111.4
292.416	17105.7
296.077	16982.4
299.734	16943.3
303.39	16793.8
307.046	16836.3
310.699	16661
314.351	16701.4
318.003	16535.2
321.651	16453.8
325.298	16421.9
328.944	16477.8
332.59	16544
336.233	16666.8
339.874	16585.4
343.514	16607.3
347.153	16754.9
350.792	16891.9
354.428	16976.9
358.062	17140
361.694	17171.1
365.326	17256.1
368.958	17147
372.586	17058.7
376.213	16899.6
379.839	16637.2
383.463	16630.6
387.086	16543.6
390.707	16500.6
394.327	16557.3
397.947	16508.8
401.564	16412.1
405.18	16470.1
408.794	16436
412.407	16307.8
416.018	16481.8
419.628	16474.9
423.237	16465
426.844	16584.3
430.449	16548.2
434.054	16624.7
437.657	16663.9
441.258	16727.4
444.858	16716.8
448.457	16720.7
452.054	16744.2
455.65	16795.7
459.244	16844
462.837	16906.4
466.429	16900.3
470.019	16931.7
473.605	16999
477.193	16974.4
480.779	17023.3
484.363	17016.1
487.946	17044.9
491.528	17259.8
495.108	17318.4
498.687	17402.4
502.263	17464.1
505.839	17605.7
509.414	17712.1
512.987	17881.9
516.559	17885.9
520.127	17973.6
523.697	17854.6
527.264	18059.4
530.831	18025.4
534.396	17932.7
537.957	17748.2
541.519	17484.6
545.08	17441.2
548.64	17316
552.195	16916.2
555.752	16832.2
559.307	16631.8
562.859	16591.3
566.412	16506.9
569.963	16531.7
573.51	16512.9
577.059	16423.6
580.606	16389.4
584.149	16350.1
587.693	16419.2
591.236	16264.6
594.776	16256.4
598.316	16334.7
601.852	16703.4
605.39	17737.4
608.924	18790.2
612.458	18438.7
615.991	17173.8
619.521	16617
623.051	16704.3
626.578	16809.4
630.106	17003.3
633.63	17148.1
637.155	17065
640.677	16962.2
644.199	16818.7
647.718	16588.8
651.237	16612.1
654.754	16631.7
658.27	16770.2
661.784	16757.2
665.296	16744.6
668.808	16786.4
672.318	16847.2
675.828	16836.7
679.334	17040.3
682.839	17083.9
686.345	17218.3
689.848	17236.9
693.351	17340.1
696.851	17452.3
700.349	17538.3
703.848	17598.7
707.344	17744.8
710.838	17830.3
714.331	18032.4
717.825	18121.3
721.315	18335.9
724.804	18348.2
728.294	18396.2
731.78	18497.3
735.265	18697.2
738.749	18948.6
742.233	19161
745.714	19470.3
749.194	20042.8
752.672	20503.8
756.149	21373.9
759.626	23175.7
763.101	27293.3
766.573	39626.9
770.045	64515
773.515	64515
776.984	64515
780.452	64515
783.92	57457.7
787.385	31344.6
790.848	27511.1
794.31	27489.3
797.771	26407.9
801.231	26068.1
804.689	22205.6
808.146	19800.6
811.601	19088.1
815.056	18835.7
818.508	18849.7
821.96	18504.8
825.41	18428.7
828.859	18484.3
832.307	18425.9
835.753	18338.8
839.198	18334.6
842.642	18227.6
846.084	18243
849.525	18213.2
852.964	18051.3
856.403	18067
859.84	18079.4
863.276	18094.2
866.71	18104.7
870.141	18077.3
873.573	18194.3
877.003	18312.9
880.432	18390.7
883.86	18514
887.287	18669
890.712	18743.7
894.134	18805.3
897.556	18968.4
900.978	19105.8
904.398	19166.4
907.816	19373.4
911.232	19456.6
914.648	19467.3
918.063	19579.2
921.476	19558.4
924.886	19655.1
928.297	19590.7
931.707	19579.3
935.115	19566.2
938.52	19673.2
941.925	19838.9
945.33	19953.1
948.731	20564.8
952.133	21130.4
955.533	22207.1
958.93	23744.4
962.328	26113.3
965.723	29068.2
969.118	32784.4
972.512	36701.8
975.903	39944.9
979.294	41870.2
982.682	41637.2
986.071	40318.8
989.458	38242.2
992.843	36050.3
996.228	34040.3
999.609	31944
1002.99	30014
1006.37	28503.7
1009.75	27113.8
1013.13	25836.8
1016.5	24784.2
1019.88	23784.6
1023.25	23120.1
1026.62	22563.6
1029.99	21921.9
1033.37	21417.7
1036.73	21246.4
1040.1	20871.2
1043.47	20599.1
1046.83	20331.4
1050.19	20231.4
1053.56	20127.4
1056.92	20020.7
1060.28	20001.4
1063.63	19996.7
1066.99	19991.8
1070.35	19987.2
1073.7	19997
1077.05	19811.1
1080.41	19878.2
1083.76	19897.8
1087.1	19786.8
1090.45	19728.3
1093.8	19678.7
1097.14	19804.4
1100.49	19797.9
1103.83	19819.7
1107.17	19863.2
1110.51	20122.2
1113.85	20166
1117.19	20145.4
1120.53	20293.3
1123.86	20415.1
1127.19	20399.7
1130.53	20497.7
1133.86	20577.7
1137.19	20549
1140.51	20676.8
1143.84	20711.4
1147.17	20751.2
1150.49	20951.8
1153.82	20957.2
1157.14	20920.9
1160.46	21009.4
1163.78	21087.6
1167.1	21205.9
1170.42	21151.9
1173.73	21304.7
1177.05	21239.7
1180.36	21309.8
1183.67	21329.9
1186.98	21519.7
1190.29	21634.2
1193.6	21655.8
1196.91	21683.6
1200.21	21867.6
1203.52	22096.6
1206.82	22155
1210.12	22450
1213.42	22487.1
1216.72	22680.7
1220.02	22960.3
1223.32	23135.4
1226.61	23481.1
1229.91	23763.9
1233.2	24009.7
1236.49	24334.9
1239.78	24668.6
1243.07	24980.4
1246.36	25283.7
1249.65	25758.8
1252.94	26027.3
1256.22	26358.7
1259.5	26676
1262.78	27060.7
1266.07	27526.3
1269.34	27960
1272.62	28254
1275.9	28835.1
1279.17	29179.9
1282.45	29556
1285.72	30082.7
1288.99	30544.2
1292.26	31017.1
1295.53	31507.6
1298.8	32045
1302.07	32478
1305.34	33065
1308.6	33605.8
1311.86	34192.1
1315.12	34778.2
1318.39	35512.3
1321.65	36357.3
1324.9	37016.3
1328.16	37764.6
1331.42	38692
1334.67	39619.9
1337.92	40447.8
1341.18	41251.2
1344.43	42087.3
1347.68	42599.4
1350.93	43097.9
1354.17	43221.7
1357.42	42936.7
1360.67	42694.4
1363.91	42103.9
1367.15	41382.7
1370.39	40514.1
1373.63	39518.8
1376.87	38670.6
1380.11	37911.7
1383.34	37284.2
1386.58	36651
1389.81	35937.7
1393.04	35202.1
1396.28	34725
1399.51	34139.1
1402.74	33674.8
1405.96	33352
1409.19	32766.7
1412.41	32423.6
1415.64	32076.4
1418.86	31722.2
1422.08	31402.3
1425.3	31174.3
1428.52	30856.8
1431.74	30643.6
1434.96	30211.6
1438.17	30124
1441.39	29822.4
1444.6	29710.4
1447.81	29493.9
1451.02	29396.9
1454.23	29244.2
1457.44	29208.9
1460.65	29181.9
1463.85	29165.9
1467.06	29157.4
1470.26	29554.1
1473.47	29901.4
1476.67	30440.2
1479.87	30590.9
1483.07	30511.6
1486.26	30559.2
1489.46	30562.8
1492.65	30923.1
1495.85	31205.8
1499.04	31724.9
1502.23	32383.3
1505.42	33303.4
1508.61	34231.6
1511.8	34878.9
1514.99	35505.2
1518.17	35729.7
1521.36	36092.9
1524.54	36011.7
1527.72	36252.8
1530.9	36322.2
1534.08	36589.1
1537.26	36680.4
1540.44	37072.7
1543.61	37211.7
1546.79	37153.9
1549.96	37388.8
1553.13	37553
1556.3	37818.2
1559.47	38217.1
1562.64	38679.3
1565.81	39264.1
1568.98	40074.4
1572.14	40785.4
1575.31	41769.2
1578.47	42502.9
1581.63	42944.3
1584.79	43201.8
1587.95	43110.8
1591.11	42941.9
1594.27	42474.4
1597.42	41987.9
1600.58	41576.4
1603.73	40874.8
1606.88	40212.8
1610.03	39337.3
1613.18	38536.4
1616.33	37713
1619.48	36915.4
1622.63	35847.8
1625.77	34634.7
1628.92	33495.7
1632.06	32246.8
1635.2	31056.2
1638.34	29889.4
1641.48	28982
1644.62	28087.4
1647.76	27217.9
1650.89	26554.9
1654.03	25887.1
1657.16	25149.3
1660.29	24636
1663.43	24170.1
1666.56	23914.1
1669.68	23633.6
1672.81	23460
1675.94	23527.6
1679.06	23635.7
1682.19	23713.1
1685.31	23944.6
1688.43	23910
1691.55	23664.1
1694.67	23454.2
1697.79	23283
1700.91	23236.8
1704.03	23270.7
1707.14	23221.3
1710.26	23248
1713.37	23080.3
1716.48	22728.2
1719.59	22371.3
1722.7	22026.6
1725.81	21645.2
1728.92	21403
1732.02	21103.9
1735.12	20857.9
1738.23	20828.9
1741.33	20796.3
1744.43	20742
1747.53	20581
1750.63	20548.1
1753.73	20619.4
1756.83	20490.4
1759.92	20522.2
1763.01	20485.2
1766.11	20522.7
1769.2	20572.7
1772.29	20683.4
1775.38	20698.2
1778.47	20763.1
1781.56	20778.4
1784.64	20759.8
1787.73	20797.2
1790.81	20867.2
1793.9	20875.2
1796.98	21027.8
1800.06	20970.3
1803.14	20966.7
1806.22	20962.3
1809.29	20957.2
1812.37	20888
1815.44	20872.7
1818.52	20961.6
1821.59	20794.2
1824.66	20821.4
1827.73	20795.7
1830.8	20634.4
1833.87	20665.6
1836.94	20599.7
1840	20500.7
1843.07	20597.9
1846.13	20547.6
1849.2	20486.9
1852.26	20433.1
1855.32	20310
1858.38	20404.4
1861.43	20443.8
1864.49	20382.3
1867.55	20471.8
1870.6	20410.3
1873.66	20456.3
1876.71	20440.9
1879.76	20649.2
1882.81	20665
1885.86	20609.4
1888.91	20702.8
1891.95	20856.6
1895	20954.4
1898.04	21023.2
1901.09	21172.2
1904.13	21072.2
1907.17	21189.3
1910.21	21277
1913.25	21230.8
1916.29	21230.3
1919.32	21255.9
1922.36	21180.6
1925.39	21125.3
1928.43	21090.9
1931.46	20905.7
1934.49	20803.1
1937.52	20659
1940.55	20728.2
1943.58	20654.3
1946.61	20661.6
1949.63	20574.7
1952.66	20628.7
1955.68	20558.4
1958.7	20467.4
1961.72	20533.1
1964.74	20435.2
1967.76	20527.4
1970.78	20526.9
1973.8	20484
1976.81	20337.3
1979.83	20500.3
1982.84	20357.3
1985.85	20491
1988.87	20478.1
1991.88	20507.6
1994.89	20508.7
1997.89	20413.2
2000.9	20594.9
2003.91	20548.3
2006.91	20680.2
2009.91	20615.1
2012.92	20698.3
2015.92	20796.2
2018.92	20863.3
2021.92	20750.9
2024.92	20826.2
2027.91	20878.2
2030.91	20899.6
2033.9	20974.3
2036.9	20970.2
2039.89	21046.6
2042.88	20831.4
2045.88	21029.8
2048.86	20984.4
2051.85	21004.4
2054.84	21011.7
2057.83	21009.3
2060.81	21004.4
2063.8	20928.1
2066.78	20913.3
2069.76	20899.1
2072.74	20786.8
2075.72	20746.4
2078.7	20785.4
2081.68	20677.7
2084.65	20760
2087.63	20616.7
2090.6	20730.7
2093.58	20525.3
2096.55	20619.3
2099.52	20622.3
2102.49	20517.4
2105.46	20614.1
2108.43	20593.2
2111.39	20641.1
2114.36	20623.1
2117.32	20711.4
2120.29	20731.2
2123.25	20742.8
2126.21	20714.4
2129.17	20876.6
2132.13	20836.1
2135.09	20886.4
2138.05	20983
2141	21171.2
2143.96	21167
2146.91	21107.9
2149.87	21268.6
2152.82	21317.8
2155.77	21300.6
2158.72	21380.8
2161.67	21538
2164.61	21575.2
2167.56	21657.6
2170.51	21661.4
2173.45	21663.6
2176.39	21745.4
2179.34	21748.8
2182.28	21786.8
2185.22	21818.2
2188.16	21802.7
2191.09	21737.1
2194.03	21590.3
2196.97	21709.8
2199.9	21659.3
2202.84	21673.6
2205.77	21627.3
2208.7	21601.3
2211.63	21528.1
2214.56	21556.8
2217.49	21498.6
2220.42	21400.1
2223.34	21341.3
2226.27	21377.6
2229.19	21284.7
2232.12	21241.9
2235.04	21230.9
2237.96	21214
2240.88	21195.7
2243.8	21206.9
2246.72	21229.4
2249.63	21190.6
2252.55	21213.7
2255.46	21174.1
2258.38	21181.6
2261.29	21149.9
2264.2	21126.7
2267.11	21209.7
2270.02	21250.1
2272.93	21205.7
2275.84	21354.9
2278.74	21410.8
2281.65	21469.6
2284.56	21429
2287.46	21571.7
2290.36	21545.2
2293.26	21652.2
2296.16	21788.8
2299.06	21816.6
2301.96	21946.6
2304.86	22037.1
2307.75	22082.7
2310.65	22026.4
2313.54	22180.1
2316.43	22177.9
2319.33	22450.8
2322.22	22701.6
2325.11	23124.1
2328	23470.1
2330.88	23527.8
2333.77	23112
2336.66	22791.3
2339.54	22629.6
2342.43	22776.1
2345.31	22722.8
2348.19	22736.1
2351.07	22712.4
2353.95	22744.9
2356.83	22789.2
2359.71	22834
2362.58	22739.3
2365.46	22659.6
2368.33	22767.7
2371.21	22924.7
2374.08	22929.1
2376.95	22753.9
2379.82	22881.6
2382.69	22834.7
2385.56	22954.1
2388.42	22911.6
2391.29	22892.1
2394.15	22916.3
2397.02	22957.9
2399.88	22957.3
2402.74	22817.3
2405.61	22867.2
2408.47	22884.7
2411.32	22874.8
2414.18	22905.9
2417.04	22790.9
2419.9	22821.8
2422.75	22770.3
2425.61	22768.4
2428.46	22834.6
2431.31	22865.9
2434.16	22817.4
2437.01	22784.3
2439.86	22826.8
2442.71	22933.8
2445.55	22920.6
2448.4	22912
2451.25	22898.8
2454.09	22926.8
2456.93	22979.6
2459.77	22974.6
2462.62	23052.1
2465.45	23005.1
2468.29	23083.9
2471.13	23109.6
2473.97	23131.9
2476.8	23130.6
2479.64	23058.8
2482.47	23171
2485.3	23280.8
2488.14	23335.3
2490.97	23437.3
2493.8	23284.7
2496.63	23527
2499.46	23572.4
2502.28	23560.6
2505.11	23646.3
2507.93	23778.2
2510.76	23827.1
2513.58	23947.6
2516.4	24003.8
2519.22	24056.3
2522.04	24013.4
2524.86	24126.1
2527.68	24274.6
2530.49	24378.1
2533.31	24332.3
2536.12	24389.4
2538.94	24533.2
2541.75	24520.2
2544.56	24626.2
2547.37	24793.6
2550.18	24722
2552.99	24737.4
2555.8	24816.3
2558.61	24805.7
2561.41	24881.4
2564.22	24934.2
2567.02	24931.2
2569.83	25038.4
2572.63	24993.8
2575.43	25054.2
2578.23	25025.3
2581.03	25148.4
2583.82	25014.3
2586.62	25035.9
2589.42	25043
2592.21	25051.3
2595.01	25014.6
2597.8	25004.6
2600.59	25091.7
2603.38	24967.3
2606.17	25008.4
2608.96	24995.7
2611.75	25044.8
2614.54	25169.3
2617.32	25099.8
2620.11	25204.9
2622.89	25227.4
2625.68	25257.3
2628.46	25363.8
2631.24	25412.7
2634.02	25470
2636.8	25553.9
2639.58	25650.3
2642.36	25744
2645.13	26003.8
2647.91	26069.4
2650.68	26165.8
2653.46	26373.9
2656.23	26525.7
2659	26788.3
2661.77	27001.4
2664.54	27168.3
2667.31	27472
2670.08	27697.6
2672.84	27886.6
2675.61	28202.4
2678.37	28490
2681.14	28726
2683.9	29049.3
2686.66	29190
2689.42	29454.3
2692.18	29739.7
2694.94	29750.2
2697.7	29793.6
2700.46	29889.2
2703.21	29864
2705.97	29813
2708.72	29807.8
2711.48	29657.4
2714.23	29531.4
2716.98	29265.8
2719.73	29125.8
2722.48	28893.7
2725.23	28781
2727.97	28605.6
2730.72	28425.1
2733.47	28199.8
2736.21	28040.6
2738.95	27789.4
2741.7	27685.8
2744.44	27418.7
2747.18	27307
2749.92	27032.8
2752.66	26925.3
2755.39	26908
2758.13	26760.8
2760.87	26811.1
2763.6	26649.2
2766.34	26481.1
2769.07	26394
2771.8	26394.3
2774.53	26219.1
2777.26	26306
2779.99	26245.3
2782.72	26246
2785.45	26218.1
2788.17	26249.8
2790.9	26133.9
2793.63	26137.1
2796.35	26139.8
2799.07	26243.6
2801.79	26222.3
2804.51	26476.7
2807.23	26343
2809.95	26444.3
2812.67	26505.9
2815.39	26767.8
2818.1	26654.9
2820.82	26864.8
2823.53	26789.2
2826.24	26885.9
2828.96	27068.9
2831.67	26976.7
2834.38	27132.6
2837.09	27066.3
2839.8	27155.4
2842.5	27056
2845.21	27338.7
2847.92	27303.6
2850.62	27282.9
2853.32	27391.6
2856.03	27394.9
2858.73	27261.1
2861.43	27263.4
2864.13	27240.2
2866.83	27322.8
2869.53	27122.4
2872.22	27178.8
2874.92	27088.9
2877.62	26947
2880.31	26929.1
2883	27106.6
2885.7	26911.7
2888.39	26749.1
2891.08	26873.2
2893.77	26761.9
2896.46	26691.3
2899.15	26621.4
2901.83	26620.8
2904.52	26663.2
2907.2	26663.1
2909.89	26683.4
2912.57	26558.4
2915.25	26672.7
2917.93	26747.2
2920.61	26672.8
2923.3	26771
2925.97	26791.3
2928.65	26866.2
2931.33	26811.8
2934	26924.6
2936.68	26910.4
2939.35	27030.1
2942.03	27042.3
2944.7	27160.2
2947.37	27199.2
2950.04	27320.7
2952.71	27387.8
2955.38	27405.9
2958.05	27335.9
2960.71	27464.2
2963.38	27624.6
2966.04	27517.2
2968.71	27603.9
2971.37	27623.8
2974.03	27644.7
2976.69	27716.4
2979.35	27580
2982.01	27600
2984.67	27588.3
2987.33	27585.9
2989.98	27411.8
2992.64	27502.6
2995.3	27355.6
2997.95	27430.9
