#Acq. time (s)=	60
#Accumulations=	10
#Range (cm-¹)=	50...3000
#Windows=	1
#Auto scanning=	Off
#Autofocus=	Off
#AutoExposure=	Off
#Spike filter=	Multiple accum.
#Delay time (s)=	0
#Binning=	1
#Readout mode=	Signal
#DeNoise=	Off
#ICS correction=	Off
#Dark correction=	Off
#Inst. Process=	Off
#Detector Gain=	High Sensitivity
#Detector ADC=	1 MHz Ultra 
#Detector temperature (°C)=	-70.2
#Instrument=	LabRAM HR Evol
#Detector=	Synapse
#Objective=	x100
#Grating=	300gr_mm
#ND Filter=	50%
#Laser (nm)=	532
#Slit=	100.021
#Hole=	1000.03
#AFM=	Off
#Collection=	Microscope
#StageXY=	Marzhauser
#StageZ=	Marzhauser
#X (µm)=	0
#Y (µm)=	0
#Z (µm)=	-649.4
#Full time(mm:ss)=	10:02
#Project=	NiGe_as-dep_
#Sample=	1
#Site=	
#Title=	50%_100x_60sx10
#Remark=	
#Date=	22.05.2026 13:47
#Acquired=	22.05.2026 13:47:50
#AxisType[0]=Intens
#AxisUnit[0]=Cnt
#AxisType[1]=Spectr
#AxisUnit[1]=1/cm
51.3749	6482.67
55.1317	6482.67
58.8869	6954.56
62.6406	7917.89
66.3907	8868.78
70.1415	11267.1
73.8907	14018.2
77.6384	16011.2
81.3847	18523.8
85.1273	21265.8
88.8705	23245.6
92.6122	24083.6
96.3525	24592.6
100.091	24381.4
103.826	24160.1
107.562	23800.4
111.296	23277.3
115.029	22328.8
118.758	21806.1
122.488	21502.1
126.216	21278.1
129.941	20576
133.666	20380.6
137.39	19810.2
141.113	19495
144.831	19275.7
148.551	18923
152.269	18793.8
155.983	18654.7
159.698	18409.2
163.409	18113.4
167.121	17980.8
170.832	17786.4
174.538	17684.2
178.246	17494.8
181.952	17385.2
185.655	17466.6
189.358	17664.2
193.057	18416
196.757	19851.7
200.454	24125
204.151	26019.4
207.845	22254.6
211.539	17325.3
215.23	16302.2
218.921	16281.8
222.609	16372.8
226.297	16485.4
229.982	16522.7
233.668	16700.6
237.35	16681.4
241.032	16748.1
244.711	16957.1
248.391	16940.9
252.067	17138.8
255.744	17363.6
259.417	17500.6
263.089	17782.7
266.761	17982.2
270.43	18164.4
274.099	17865.6
277.765	17640.6
281.43	17453.6
285.095	17041.1
288.756	16677.8
292.416	16318.6
296.077	15902.2
299.734	15540
303.39	15176.6
307.046	14927.8
310.699	14651
314.351	14565
318.003	14342.2
321.651	14238.3
325.298	14272
328.944	14238.9
332.59	14139.2
336.233	14129.3
339.874	14095.2
343.514	14106.4
347.153	13984.8
350.792	13864.4
354.428	13901.8
358.062	13872.1
361.694	13795.7
365.326	13699.2
368.958	13638
372.586	13696.4
376.213	13586.4
379.839	13575.8
383.463	13463.9
387.086	13383.8
390.707	13322
394.327	13378.3
397.947	13372.8
401.564	13242.6
405.18	13253.6
408.794	13202.3
412.407	13180.8
416.018	13120.8
419.628	13181.9
423.237	13053.2
426.844	13187.3
430.449	13124.9
434.054	13156.7
437.657	13179.1
441.258	13175.7
444.858	13195.9
448.457	13251.8
452.054	13225.7
455.65	13329
459.244	13270
462.837	13365.2
466.429	13307.4
470.019	13417.1
473.605	13386.7
477.193	13528.4
480.779	13582.1
484.363	13671.1
487.946	13668.7
491.528	13695.7
495.108	13851.8
498.687	13970.2
502.263	14084.8
505.839	14125
509.414	14345.9
512.987	14356.8
516.559	14443.1
520.127	14499.2
523.697	14516.6
527.264	14592.4
530.831	14532.8
534.396	14553
537.957	14419.9
541.519	14240
545.08	14123.1
548.64	13923.2
552.195	13793.8
555.752	13465.4
559.307	13416.2
562.859	13262.2
566.412	13221.9
569.963	13141.2
573.51	13047.6
577.059	12997.3
580.606	12937.4
584.149	12791.7
587.693	12795.6
591.236	12817.2
594.776	12700.7
598.316	12710.3
601.852	12785.4
605.39	13308.9
608.924	14072.3
612.458	13955.3
615.991	13286
619.521	12861.3
623.051	12987.4
626.578	13037.3
630.106	13088.1
633.63	13112.2
637.155	13206.7
640.677	13054.1
644.199	12877.1
647.718	12905.6
651.237	12916.6
654.754	12972.6
658.27	13047.1
661.784	12933.9
665.296	13024.7
668.808	13102.7
672.318	13105.8
675.828	13176.1
679.334	13150
682.839	13371.9
686.345	13375.6
689.848	13554.9
693.351	13585.7
696.851	13698.8
700.349	13717.8
703.848	13810.3
707.344	13944.6
710.838	13944.2
714.331	14100.1
717.825	14152.8
721.315	14291.6
724.804	14347.1
728.294	14395.4
731.78	14431.6
735.265	14653.3
738.749	14635.9
742.233	14896.9
745.714	15147.7
749.194	15414
752.672	15825
756.149	16259.4
759.626	17187.4
763.101	19286.3
766.573	25108
770.045	45718.7
773.515	64515
776.984	64515
780.452	64515
783.92	43688.1
787.385	23549.1
790.848	19518
794.31	19126.1
797.771	20065.8
801.231	21493.8
804.689	18641.8
808.146	16222.1
811.601	15815.7
815.056	15546.9
818.508	15476.1
821.96	15359.2
825.41	15230
828.859	15222
832.307	15212.4
835.753	15150.6
839.198	15101.6
842.642	15070.9
846.084	14975.6
849.525	15004.6
852.964	14966
856.403	14979.4
859.84	14852
863.276	14817.8
866.71	14935.3
870.141	14958.6
873.573	14955.2
877.003	15077.8
880.432	15006.3
883.86	15131.1
887.287	15148.7
890.712	15159.8
894.134	15279
897.556	15410.1
900.978	15419.8
904.398	15505.4
907.816	15507.9
911.232	15728.6
914.648	15663.6
918.063	15687.2
921.476	15654.2
924.886	15618.2
928.297	15587.6
931.707	15500.4
935.115	15395.2
938.52	15338
941.925	15540.7
945.33	15490.1
948.731	15673.8
952.133	15995.9
955.533	16558.6
958.93	17256.6
962.328	18420.1
965.723	19985.9
969.118	21953.8
972.512	23936.7
975.903	25836.2
979.294	26925.4
982.682	27016.9
986.071	26494.3
989.458	25382.8
992.843	24094.3
996.228	22863.8
999.609	21651.2
1002.99	20718
1006.37	19664.3
1009.75	18733.9
1013.13	17974.4
1016.5	17352.8
1019.88	16753.9
1023.25	16167.6
1026.62	15922.3
1029.99	15437
1033.37	15233.2
1036.73	14927.1
1040.1	14623.7
1043.47	14433.2
1046.83	14292.8
1050.19	14226.2
1053.56	14029.6
1056.92	13968.1
1060.28	13985.3
1063.63	13882.7
1066.99	13828.2
1070.35	13802.6
1073.7	13667.7
1077.05	13554.9
1080.41	13603.9
1083.76	13388.2
1087.1	13269.9
1090.45	13189.2
1093.8	13181.8
1097.14	13143.1
1100.49	13111.7
1103.83	13048.7
1107.17	13083.4
1110.51	13062.1
1113.85	13111.4
1117.19	13078.6
1120.53	13069.1
1123.86	13131.6
1127.19	13066.8
1130.53	13088.8
1133.86	12988.6
1137.19	13061.8
1140.51	12948.3
1143.84	12972.8
1147.17	12934.7
1150.49	12885.6
1153.82	12904.4
1157.14	12825.1
1160.46	12828.3
1163.78	12828
1167.1	12726.2
1170.42	12729.7
1173.73	12656.7
1177.05	12602.4
1180.36	12496.1
1183.67	12520.3
1186.98	12479.7
1190.29	12523.9
1193.6	12428.6
1196.91	12530.7
1200.21	12423.8
1203.52	12493.1
1206.82	12458.8
1210.12	12405.3
1213.42	12467.1
1216.72	12490.1
1220.02	12545.6
1223.32	12439.7
1226.61	12563.3
1229.91	12682.7
1233.2	12568.1
1236.49	12671.4
1239.78	12655.4
1243.07	12793.4
1246.36	12850.3
1249.65	12923.4
1252.94	12886.1
1256.22	12939
1259.5	12992.8
1262.78	12960.1
1266.07	13059.2
1269.34	12980.9
1272.62	13030.2
1275.9	13125.6
1279.17	13042.2
1282.45	13146.2
1285.72	13178.4
1288.99	13193.7
1292.26	13230.1
1295.53	13297
1298.8	13189
1302.07	13229.7
1305.34	13248
1308.6	13226
1311.86	13241.8
1315.12	13239.9
1318.39	13254
1321.65	13261.7
1324.9	13271.8
1328.16	13282.2
1331.42	13288.6
1334.67	13366.7
1337.92	13311.9
1341.18	13390.2
1344.43	13391.2
1347.68	13453.3
1350.93	13444.7
1354.17	13521.6
1357.42	13648.1
1360.67	13610.1
1363.91	13805.9
1367.15	13758
1370.39	13865.8
1373.63	13901.3
1376.87	13884.1
1380.11	13922.9
1383.34	14018.6
1386.58	14102.3
1389.81	14200.1
1393.04	14329.2
1396.28	14367
1399.51	14387.3
1402.74	14430
1405.96	14472.7
1409.19	14603.3
1412.41	14573.6
1415.64	14600.9
1418.86	14609.4
1422.08	14662.2
1425.3	14755.1
1428.52	14646.7
1431.74	14714.6
1434.96	14714.7
1438.17	14715.4
1441.39	14775.3
1444.6	14792.9
1447.81	14700.8
1451.02	14681.9
1454.23	14729.7
1457.44	14679
1460.65	14751.4
1463.85	14738.3
1467.06	14855
1470.26	15089.7
1473.47	15318.7
1476.67	15611.4
1479.87	15748
1483.07	15689.1
1486.26	15711.7
1489.46	15784.3
1492.65	15850.7
1495.85	15971.6
1499.04	16277.1
1502.23	16705.3
1505.42	17069.7
1508.61	17538.1
1511.8	17969.1
1514.99	18308.2
1518.17	18452.6
1521.36	18398.6
1524.54	18413
1527.72	18395.7
1530.9	18236.8
1534.08	18284.3
1537.26	18277.9
1540.44	18280
1543.61	18049.4
1546.79	17975.8
1549.96	17863.7
1553.13	17775.3
1556.3	17576.4
1559.47	17355
1562.64	17093.6
1565.81	16997.1
1568.98	16913.9
1572.14	16933.2
1575.31	16864.2
1578.47	16935
1581.63	16930.2
1584.79	16795.4
1587.95	16635.2
1591.11	16506.8
1594.27	16487.9
1597.42	16469.7
1600.58	16543.7
1603.73	16554.4
1606.88	16629
1610.03	16627.8
1613.18	16609.1
1616.33	16629.2
1619.48	16716.8
1622.63	16598.3
1625.77	16569.7
1628.92	16524.3
1632.06	16607
1635.2	16483.4
1638.34	16545.1
1641.48	16601.3
1644.62	16734.4
1647.76	16791.6
1650.89	16753.4
1654.03	16873.1
1657.16	16925.4
1660.29	16972.3
1663.43	17065.9
1666.56	17154.1
1669.68	17146.8
1672.81	17413.6
1675.94	17619
1679.06	17802.6
1682.19	18144.6
1685.31	18399.9
1688.43	18559.8
1691.55	18424.7
1694.67	18423.7
1697.79	18319.8
1700.91	18472.3
1704.03	18636.4
1707.14	18567.8
1710.26	18688.3
1713.37	18674.7
1716.48	18544.2
1719.59	18372.3
1722.7	18222.7
1725.81	18055.4
1728.92	17873.3
1732.02	17834
1735.12	17894.6
1738.23	17766.2
1741.33	17718.6
1744.43	17821
1747.53	17727.7
1750.63	17824.4
1753.73	17713.8
1756.83	17816.2
1759.92	17812.3
1763.01	17859.7
1766.11	17827.9
1769.2	17935.9
1772.29	18043.8
1775.38	18114.4
1778.47	18134.8
1781.56	18300.8
1784.64	18284.1
1787.73	18349.4
1790.81	18378.1
1793.9	18363.1
1796.98	18422.4
1800.06	18428.1
1803.14	18533.4
1806.22	18472.3
1809.29	18533
1812.37	18541.8
1815.44	18444
1818.52	18435.2
1821.59	18425.1
1824.66	18327.1
1827.73	18358.4
1830.8	18290.6
1833.87	18264
1836.94	18288.1
1840	18235.2
1843.07	18201.8
1846.13	18228.8
1849.2	18166.6
1852.26	18206.1
1855.32	18141.7
1858.38	18269.1
1861.43	18181.2
1864.49	18146.8
1867.55	18268
1870.6	18256.7
1873.66	18321.1
1876.71	18396.9
1879.76	18454.9
1882.81	18505.4
1885.86	18539.4
1888.91	18617.7
1891.95	18748.7
1895	18776.2
1898.04	18862.8
1901.09	18888.3
1904.13	18958.1
1907.17	19009.8
1910.21	19088.4
1913.25	19185.3
1916.29	19099.4
1919.32	19133.1
1922.36	19196.1
1925.39	19153
1928.43	19131.2
1931.46	18999
1934.49	18920.3
1937.52	18946.3
1940.55	18901
1943.58	18884.9
1946.61	18830.2
1949.63	18861.8
1952.66	18798.9
1955.68	18851.6
1958.7	18893.8
1961.72	18831.2
1964.74	18801
1967.76	18783.2
1970.78	18840.1
1973.8	18710.4
1976.81	18679.1
1979.83	18717.8
1982.84	18662.6
1985.85	18789.9
1988.87	18785.9
1991.88	18875.8
1994.89	18759.6
1997.89	18919
2000.9	18859.6
2003.91	18949.6
2006.91	18934.9
2009.91	19003
2012.92	19083.3
2015.92	19005.7
2018.92	19196.4
2021.92	19095.2
2024.92	19139
2027.91	19242.9
2030.91	19187
2033.9	19400.3
2036.9	19348.9
2039.89	19259.7
2042.88	19343.9
2045.88	19369.1
2048.86	19298.9
2051.85	19377.2
2054.84	19304.9
2057.83	19335.8
2060.81	19383.8
2063.8	19370.6
2066.78	19293.2
2069.76	19320.9
2072.74	19204.2
2075.72	19245.8
2078.7	19130.1
2081.68	19124.7
2084.65	19171.9
2087.63	19059
2090.6	19033.6
2093.58	19033.1
2096.55	19065.6
2099.52	18994.9
2102.49	18971.7
2105.46	18985.4
2108.43	19054.9
2111.39	19099.3
2114.36	19143.4
2117.32	19106.9
2120.29	19085.9
2123.25	19250.3
2126.21	19120.1
2129.17	19195.3
2132.13	19310.7
2135.09	19301
2138.05	19432.7
2141	19527.6
2143.96	19458.3
2146.91	19620
2149.87	19692.6
2152.82	19746.2
2155.77	19725
2158.72	19919.4
2161.67	19930.1
2164.61	19844.1
2167.56	19890.4
2170.51	20008.7
2173.45	19970.4
2176.39	20124.8
2179.34	20001.2
2182.28	20116.4
2185.22	20119.6
2188.16	20078.4
2191.09	20100.4
2194.03	20093.3
2196.97	20061.7
2199.9	20095.3
2202.84	20012.2
2205.77	19865.3
2208.7	19888.2
2211.63	19918.4
2214.56	19823.1
2217.49	19879.1
2220.42	19768.8
2223.34	19606.9
2226.27	19619.3
2229.19	19665.7
2232.12	19704.9
2235.04	19639.2
2237.96	19536.2
2240.88	19660.3
2243.8	19530
2246.72	19529.7
2249.63	19558.4
2252.55	19465
2255.46	19592.1
2258.38	19504.7
2261.29	19552.9
2264.2	19607.8
2267.11	19533.6
2270.02	19585.3
2272.93	19565.8
2275.84	19640.6
2278.74	19683.9
2281.65	19788.6
2284.56	19804.4
2287.46	19818.8
2290.36	19839.8
2293.26	19946.7
2296.16	20041.9
2299.06	20079.6
2301.96	20105.1
2304.86	20207.3
2307.75	20218.6
2310.65	20335.6
2313.54	20347.6
2316.43	20502.1
2319.33	20579.3
2322.22	20841.6
2325.11	21253.7
2328	21694.3
2330.88	21638.7
2333.77	21257.4
2336.66	20926
2339.54	20735.8
2342.43	20705.1
2345.31	20745
2348.19	20796.1
2351.07	20688.4
2353.95	20728.9
2356.83	20738.9
2359.71	20841.3
2362.58	20856.2
2365.46	20672.9
2368.33	20783.1
2371.21	20865.7
2374.08	20844.3
2376.95	20843.2
2379.82	20799.6
2382.69	20742.3
2385.56	20844.1
2388.42	20794
2391.29	20724
2394.15	20714
2397.02	20666.7
2399.88	20663.8
2402.74	20702.2
2405.61	20606.4
2408.47	20647.4
2411.32	20588.2
2414.18	20710.9
2417.04	20477.6
2419.9	20521.3
2422.75	20540.6
2425.61	20525.8
2428.46	20387.9
2431.31	20434.2
2434.16	20476.4
2437.01	20432.9
2439.86	20445.1
2442.71	20491.8
2445.55	20307.8
2448.4	20411
2451.25	20366.4
2454.09	20257.4
2456.93	20330.6
2459.77	20414.8
2462.62	20366.1
2465.45	20350.3
2468.29	20330.6
2471.13	20406.1
2473.97	20442
2476.8	20407.1
2479.64	20496.8
2482.47	20590.6
2485.3	20593.3
2488.14	20544.7
2490.97	20655.4
2493.8	20733.2
2496.63	20609.6
2499.46	20646.4
2502.28	20742.9
2505.11	20851.9
2507.93	20719.8
2510.76	20855.2
2513.58	20916
2516.4	20932.4
2519.22	20994.6
2522.04	21135.1
2524.86	21151.1
2527.68	21182.2
2530.49	21123.6
2533.31	21338.1
2536.12	21324.1
2538.94	21364.9
2541.75	21317.1
2544.56	21425.3
2547.37	21413.3
2550.18	21384.1
2552.99	21407.7
2555.8	21508
2558.61	21312.9
2561.41	21476.7
2564.22	21367.9
2567.02	21368
2569.83	21456.3
2572.63	21495.8
2575.43	21446.7
2578.23	21412.9
2581.03	21363.3
2583.82	21325.8
2586.62	21349.8
2589.42	21268.7
2592.21	21250.3
2595.01	21182.9
2597.8	21012.8
2600.59	21149.8
2603.38	21028.1
2606.17	20941.8
2608.96	21095.4
2611.75	20962.2
2614.54	20880.1
2617.32	20901
2620.11	20875.1
2622.89	20849
2625.68	20867.7
2628.46	20826.9
2631.24	20924.4
2634.02	20813.7
2636.8	20877.4
2639.58	20881.8
2642.36	20942.4
2645.13	20841.9
2647.91	20953.9
2650.68	20965.6
2653.46	21107.7
2656.23	21025
2659	21110.3
2661.77	21214.6
2664.54	21192.2
2667.31	21345
2670.08	21258.6
2672.84	21443.3
2675.61	21466.9
2678.37	21501.7
2681.14	21567.3
2683.9	21556.3
2686.66	21727.7
2689.42	21631.4
2692.18	21777.8
2694.94	21831.8
2697.7	21796.7
2700.46	21918
2703.21	21897.6
2705.97	21839.4
2708.72	21909
2711.48	21900.7
2714.23	21932.7
2716.98	21996.4
2719.73	21869
2722.48	21934
2725.23	21865.4
2727.97	21964.8
2730.72	21926.7
2733.47	21826.2
2736.21	21740.6
2738.95	21721.8
2741.7	21702.8
2744.44	21594.1
2747.18	21524.4
2749.92	21579.1
2752.66	21565.3
2755.39	21500.6
2758.13	21391.6
2760.87	21431.8
2763.6	21333.1
2766.34	21461.4
2769.07	21328
2771.8	21222.7
2774.53	21312.8
2777.26	21279.3
2779.99	21329.7
2782.72	21331.3
2785.45	21238.7
2788.17	21393.6
2790.9	21381.7
2793.63	21444.1
2796.35	21428.3
2799.07	21457.1
2801.79	21485.4
2804.51	21537
2807.23	21551.6
2809.95	21767.1
2812.67	21776.7
2815.39	21897.2
2818.1	21881.7
2820.82	21891.4
2823.53	21842.3
2826.24	22091.1
2828.96	22162.9
2831.67	22188.9
2834.38	22206.4
2837.09	22173.7
2839.8	22248.6
2842.5	22310.4
2845.21	22221.9
2847.92	22243
2850.62	22276
2853.32	22466.6
2856.03	22228.1
2858.73	22246.3
2861.43	22214.3
2864.13	22238.6
2866.83	22158.6
2869.53	22151.8
2872.22	22029.6
2874.92	22199.4
2877.62	21894
2880.31	21992.7
2883	21842.1
2885.7	21847
2888.39	21777.4
2891.08	21751.1
2893.77	21644.1
2896.46	21704
2899.15	21538.3
2901.83	21492.9
2904.52	21515.7
2907.2	21412.3
2909.89	21461.4
2912.57	21526.9
2915.25	21432.4
2917.93	21394.4
2920.61	21562
2923.3	21476.3
2925.97	21471.1
2928.65	21589.6
2931.33	21526.2
2934	21584
2936.68	21640.4
2939.35	21721.3
2942.03	21678.1
2944.7	21798.8
2947.37	21982
2950.04	21903.6
2952.71	22062.9
2955.38	22086
2958.05	22103.2
2960.71	22197.4
2963.38	22300.8
2966.04	22308.1
2968.71	22423.3
2971.37	22390.9
2974.03	22541.6
2976.69	22544.7
2979.35	22602.6
2982.01	22525.7
2984.67	22638
2987.33	22603.9
2989.98	22667.3
2992.64	22747.1
2995.3	22781
2997.95	22597.4
