;Raman shift;Intensity;Baseline;Corrected Intensity
0;51.3771;6086.89;6509.423280498872;-422.53328049887205
1;55.1338;6086.89;6574.734792652514;-487.8447926525141
2;58.889;6951.22;6640.042083698722;311.17791630127795
3;62.6428;8128.78;6705.336058960578;1423.4439410394216
4;66.395;9092.0;6770.607626872942;2321.392373127058
5;70.1436;10884.3;6835.847710105112;4048.452289894887
6;73.8928;12981.9;6901.047254540304;6080.852745459696
7;77.6406;15209.0;6966.197246546247;8242.802753453754
8;81.3868;18741.1;7031.2887332992;11709.811266700799
9;85.1315;23481.9;7096.31284440344;16385.58715559656
10;88.8748;31815.8;7161.260826561353;24654.539173438647
11;92.6144;42149.1;7226.124090331195;34922.97590966881
12;96.3546;46285.9;7290.894292816615;38995.00570718339
13;100.093;45255.9;7355.5634403510185;37900.33655964898
14;103.831;36738.6;7420.123929217869;29318.47607078213
15;107.564;27939.4;7484.568534703991;20454.83146529601
16;111.298;23707.2;7548.890325280967;16158.309674719034
17;115.031;21994.0;7613.08257396869;14380.91742603131
18;118.763;21643.2;7677.138715370145;13966.061284629855
19;122.49;22344.3;7741.05232789749;14603.247672102509
20;126.218;24665.7;7804.817129623484;16860.882870376518
21;129.945;29136.6;7868.426984653367;21268.17301534663
22;133.668;32871.9;7931.875925701199;24940.024074298803
23;137.392;33826.9;7995.158198162773;25831.741801837226
24;141.115;31838.1;8058.268296834121;23779.831703165877
25;144.833;27396.1;8121.2009748286955;19274.899025171304
26;148.553;23978.7;8183.951223058255;15794.748776941746
27;152.271;22382.0;8246.51422518355;14135.48577481645
28;155.985;21118.9;8308.885322812814;12810.014677187188
29;159.7;20281.2;8371.059998909135;11910.140001090866
30;163.413;19673.8;8433.033864535746;11240.766135464253
31;167.123;19635.4;8494.802649857278;11140.597350142723
32;170.834;19733.9;8556.362197446027;11177.537802553974
33;174.543;20312.3;8617.70846128026;11694.59153871974
34;178.248;21081.8;8678.837507113609;12402.96249288639
35;181.954;21534.4;8739.745517645622;12794.654482354379
36;185.657;21381.3;8800.428799605465;12580.871200394535
37;189.36;20456.8;8860.88378766884;11595.91621233116
38;193.059;18867.4;8921.107042320155;9946.292957679847
39;196.759;18148.3;8981.09524000298;9167.20475999702
40;200.458;18238.4;9040.845156623807;9197.554843376194
41;204.153;18921.7;9100.35365976117;9821.346340238832
42;207.849;19642.7;9159.617708969145;10483.082291030856
43;211.541;19710.2;9218.634362015271;10491.56563798473
44;215.234;19253.7;9277.40078149791;9976.29921850209
45;218.923;18244.4;9335.914234931075;8908.485765068926
46;222.613;17196.1;9394.172089591768;7801.927910408231
47;226.299;16649.0;9452.171801841838;7196.828198158162
48;229.986;16306.8;9509.910906062407;6796.889093937592
49;233.67;16129.4;9567.387008602878;6562.012991397121
50;237.354;16056.0;9624.597783781543;6431.402216218457
51;241.034;15944.2;9681.540971536811;6262.659028463189
52;244.715;15971.8;9738.214376121114;6233.585623878886
53;248.393;15837.1;9794.61586441346;6042.484135586541
54;252.069;15838.9;9850.743365628714;5988.156634371286
55;255.746;15951.3;9906.594869406577;6044.705130593422
56;259.419;15914.1;9962.168425268319;5951.931574731681
57;263.093;15971.2;10017.46214318226;5953.737856817741
58;266.763;16038.4;10072.474192636026;5965.925807363974
59;270.432;16214.1;10127.202802654614;6086.897197345386
60;274.101;16156.0;10181.646261922278;5974.353738077722
61;277.767;16320.6;10235.802919992248;6084.797080007753
62;281.434;16371.9;10289.671186161278;6082.228813838721
63;285.097;16480.2;10343.24953057409;6136.95046942591
64;288.758;16650.9;10396.536484197688;6254.3635158023135
65;292.42;16646.7;10449.53063936857;6197.169360631431
66;296.079;16571.7;10502.230650966867;6069.469349033134
67;299.736;16482.1;10554.635235844398;5927.4647641556
68;303.394;16344.0;10606.743171547667;5737.256828452333
69;307.048;16284.8;10658.55329489782;5626.2467051021795
70;310.701;16157.9;10710.064500088572;5447.835499911427
71;314.353;16129.6;10761.275737576088;5368.324262423912
72;318.005;16046.6;10812.18601229488;5234.41398770512
73;321.653;16064.4;10862.7943828627;5201.6056171373
74;325.3;16003.9;10913.099960241436;5090.800039758564
75;328.948;16166.9;10963.101907409035;5203.798092590965
76;332.592;16193.8;11012.79943825143;5181.000561748569
77;336.235;16269.8;11062.191818692532;5207.608181307467
78;339.876;16325.7;11111.278366466253;5214.421633533748
79;343.516;16473.3;11160.058451382587;5313.241548617412
80;347.157;16630.4;11208.531495395731;5421.86850460427
81;350.794;16960.0;11256.696973592301;5703.303026407699
82;354.43;17116.3;11304.554415277593;5811.745584722406
83;358.064;17368.1;11352.103406789927;6015.996593210071
84;361.697;17554.9;11399.34359258507;6155.5564074149315
85;365.33;17512.6;11446.274677278752;6066.325322721246
86;368.96;17481.4;11492.89642704226;5988.503572957741
87;372.588;17177.3;11539.208668710125;5638.091331289874
88;376.215;16873.0;11585.211289001905;5287.788710998095
89;379.841;16375.6;11630.904231018074;4744.695768981926
90;383.465;15951.2;11676.287490736979;4274.912509263022
91;387.088;15626.0;11721.361111583925;3904.638888416075
92;390.711;15301.6;11766.125179733324;3535.474820266676
93;394.331;15208.1;11810.579820405976;3397.5201795940247
94;397.949;15121.4;11854.72519417742;3266.6748058225803
95;401.566;15139.0;11898.561495598395;3240.4385044016053
96;405.182;15020.9;11942.088951886384;3078.8110481136155
97;408.796;14939.4;11985.30782266325;2954.09217733675
98;412.409;14886.0;12028.218398338959;2857.7816016610413
99;416.02;14960.3;12070.8209988644;2889.4790011356
100;419.63;14814.0;12113.115972768264;2700.8840272317357
101;423.239;14887.7;12155.103697474025;2732.5963025259753
102;426.846;14885.1;12196.784577413991;2688.315422586009
103;430.452;14913.9;12238.159044346428;2675.7409556535713
104;434.056;14864.7;12279.227556912749;2585.472443087252
105;437.659;14867.9;12319.990600511772;2547.909399488228
106;441.26;14860.0;12360.448686397034;2499.551313602966
107;444.86;14880.1;12400.602351301155;2479.4976486988453
108;448.459;14951.3;12440.45215695226;2510.847843047739
109;452.056;14938.8;12479.998689873448;2458.8013101265515
110;455.652;14940.6;12519.242561696285;2421.3574383037158
111;459.246;14947.7;12558.18440864035;2389.51559135965
112;462.839;14947.4;12596.824891138796;2350.5751088612033
113;466.431;14963.4;12635.16469351992;2328.235306480079
114;470.021;14853.2;12673.204523617766;2179.995476382235
115;473.609;14938.0;12710.945112548721;2227.054887451279
116;477.197;14919.8;12748.387213229125;2171.412786770874
117;480.781;15013.2;12785.531600845856;2227.668399154145
118;484.365;14949.3;12822.379072299907;2126.920927700092
119;487.948;15035.3;12858.930446768942;2176.3695532310576
120;491.53;15101.9;12895.186564699825;2206.7134353001748
121;495.11;15033.7;12931.148288303111;2102.5517116968895
122;498.689;15124.1;12966.816501856485;2157.2834981435153
123;502.267;15255.9;13002.192110663138;2253.7078893368616
124;505.841;15232.1;13037.276041599085;2194.823958400915
125;509.416;15328.0;13072.069244077422;2255.930755922578
126;512.989;15308.8;13106.572689459472;2202.2273105405275
127;516.561;15328.4;13140.787371665856;2187.6126283341437
128;520.131;15382.7;13174.714306639466;2207.985693360535
129;523.701;15371.4;13208.354532199313;2163.0454678006863
130;527.266;15325.6;13241.709108244262;2083.8908917557383
131;530.833;15376.7;13274.77911630363;2101.92088369637
132;534.398;15280.7;13307.565658745636;1973.1343412543647
133;537.961;15186.4;13340.069858957688;1846.3301410423119
134;541.521;15203.8;13372.29286005853;1831.50713994147
135;545.082;15024.0;13404.235823630203;1619.7641763697975
136;548.642;14966.7;13435.899929569812;1530.8000704301885
137;552.198;14937.3;13467.286373972103;1470.013626027896
138;555.754;14802.3;13498.396368239815;1303.903631760184
139;559.309;14694.3;13529.23113847582;1165.0688615241797
140;562.863;14588.3;13559.791923822007;1028.5080761779918
141;566.414;14536.1;13590.079975070954;946.0200249290465
142;569.965;14512.4;13620.09655330031;892.3034466996905
143;573.515;14470.7;13649.842929047914;820.8570709520864
144;577.061;14541.3;13679.320381774634;861.9796182253649
145;580.608;14489.9;13708.53019914989;781.3698008501087
146;584.153;14541.3;13737.473677462902;803.8263225370974
147;587.695;14464.9;13766.152120816581;698.7478791834183
148;591.238;14573.1;13794.566841352102;778.5331586478987
149;594.778;14636.9;13822.719158198108;814.1808418018918
150;598.318;14684.7;13850.610398268576;834.0896017314244
151;601.856;14737.1;13878.24189661928;858.8581033807204
152;605.392;14715.0;13905.614996646886;809.3850033531144
153;608.928;14913.1;13932.731050336633;980.368949663367
154;612.46;14835.6;13959.591417767617;876.0085822323836
155;615.993;14928.0;13986.197468822607;941.8025311773927
156;619.523;14968.1;14012.550582144464;955.5494178555364
157;623.053;15088.1;14038.652145794065;1049.447854205935
158;626.58;15108.0;14064.503557387785;1043.496442612215
159;630.108;15116.9;14090.106225036468;1026.7937749635312
160;633.632;15178.4;14115.461567285918;1062.9384327140815
161;637.157;15158.1;14140.571012949871;1017.5289870501292
162;640.679;15154.7;14165.436001471448;989.2639985285532
163;644.201;15108.4;14190.057982469054;918.3420175309457
164;647.72;15188.0;14214.438415453724;973.5615845462762
165;651.239;15256.9;14238.5787691199;1018.3212308800994
166;654.756;15135.3;14262.48052189764;872.8194781023594
167;658.272;15336.3;14286.145162400204;1050.1548375997954
168;661.786;15312.6;14309.574187969041;1003.0258120309591
169;665.3;15343.8;14332.769106447135;1011.0308935528647
170;668.81;15408.0;14355.73143570772;1052.2685642922806
171;672.32;15481.7;14378.462703734314;1103.2372962656864
172;675.83;15580.0;14400.964449033128;1179.0355509668716
173;679.336;15661.1;14423.238221142727;1237.8617788572737
174;682.843;15787.3;14445.285581392021;1342.0144186079779
175;686.347;15852.1;14467.108103488526;1384.991896511474
176;689.85;16007.2;14488.707374559892;1518.492625440109
177;693.353;15959.4;14510.084995583678;1449.3150044163212
178;696.853;16054.0;14531.242582722367;1522.757417277633
179;700.351;16092.2;14552.181766631584;1540.018233368417
180;703.85;16197.2;14572.904193194527;1624.295806805474
181;707.346;16348.3;14593.411523694569;1754.8884763054302
182;710.84;16278.3;14613.70543565803;1664.594564341969
183;714.335;16382.7;14633.787624160126;1748.9123758398746
184;717.827;16365.8;14653.659800922;1712.1401990779996
185;721.317;16367.0;14673.323695153917;1693.6763048460834
186;724.808;16527.0;14692.781053187528;1834.2189468124725
187;728.296;16593.2;14712.03363829125;1881.1663617087506
188;731.782;16559.3;14731.083232075684;1828.2167679243157
189;735.267;16601.1;14749.931634963088;1851.1683650369105
190;738.753;16665.2;14768.58066565788;1896.61933434212
191;742.235;16691.9;14787.03216137616;1904.8678386238407
192;745.716;16744.4;14805.287978300215;1939.112021699786
193;749.196;16797.8;14823.349991661007;1974.4500083389921
194;752.674;16900.7;14841.220096080611;2059.4799039193895
195;756.153;16983.9;14858.900205925598;2124.9997940744033
196;759.628;17067.9;14876.392256157334;2191.507743842667
197;763.102;17254.2;14893.698202987172;2360.5017970128283
198;766.575;17368.3;14910.820024541528;2457.479975458471
199;770.047;17844.4;14927.759722551833;2916.6402774481685
200;773.517;18266.7;14944.519323324306;3322.1806766756945
201;776.988;18247.4;14961.100882331562;3286.299117668439
202;780.456;18047.0;14977.506488268016;3069.4935117319837
203;783.922;17926.6;14993.73826269107;2932.861737308929
204;787.387;18023.3;15009.79835785305;3013.50164214695
205;790.85;18060.7;15025.688955334896;3035.011044665105
206;794.312;18152.1;15041.412266852549;3110.6877331474498
207;797.773;18077.9;15056.970534472057;3020.9294655279446
208;801.233;18197.2;15072.36603136633;3124.8339686336712
209;804.691;18392.2;15087.601060917548;3304.5989390824525
210;808.148;18242.8;15102.677957756223;3140.1220422437764
211;811.603;18227.8;15117.599089558844;3110.2009104411554
212;815.057;18227.7;15132.366855403105;3095.333144596896
213;818.51;18288.4;15146.983685468711;3141.4163145312905
214;821.964;18296.8;15161.452040888706;3135.3479591112937
215;825.414;18318.1;15175.774414210282;3142.3255857897166
216;828.863;18194.3;15189.953329334123;3004.3466706658764
217;832.311;18227.3;15203.991341584162;3023.3086584158373
218;835.755;18078.1;15217.891036327801;2860.2089636721976
219;839.2;18131.4;15231.655029165524;2899.7449708344775
220;842.643;17918.6;15245.28596429989;2673.3140357001084
221;846.086;18029.7;15258.786514930907;2770.9134850690934
222;849.527;18032.1;15272.159380991716;2759.9406190082827
223;852.966;17837.8;15285.407290124589;2552.39270987541
224;856.405;17909.8;15298.532997571192;2611.2670024288072
225;859.842;17887.0;15311.539284097113;2575.4607159028874
226;863.278;17884.1;15324.428956580612;2559.6710434193865
227;866.712;17835.8;15337.204847654537;2498.5951523454623
228;870.145;17955.2;15349.86981554845;2605.33018445155
229;873.577;17910.3;15362.426743477863;2547.873256522136
230;877.005;17957.3;15374.878540711585;2582.4214592884146
231;880.434;17966.9;15387.228141997159;2579.671858002843
232;883.862;18037.9;15399.478507906337;2638.4214920936647
233;887.289;18017.2;15411.632624807595;2605.567375192406
234;890.714;18117.1;15423.693505453592;2693.406494546407
235;894.138;18066.8;15435.66418865266;2631.1358113473398
236;897.558;18154.9;15447.547740147193;2707.352259852809
237;900.98;18111.7;15459.347251990948;2652.3527480090524
238;904.4;18230.8;15471.06584331119;2759.73415668881
239;907.818;18219.3;15482.7066597587;2736.5933402412993
240;911.236;18325.1;15494.272874581597;2830.827125418402
241;914.65;18157.8;15505.76768839392;2652.032311606079
242;918.065;18088.4;15517.194330117985;2571.205669882016
243;921.478;17950.4;15528.556055196415;2421.843944803586
244;924.89;17866.6;15539.856144783887;2326.743855216111
245;928.299;17837.6;15551.097904253518;2286.5020957464803
246;931.708;17837.4;15562.284662245855;2275.115337754147
247;935.117;17687.0;15573.41977026645;2113.5802297335504
248;938.522;17594.8;15584.506602571997;2010.2933974280022
249;941.927;17430.2;15595.54855455499;1834.6514454450116
250;945.332;17492.9;15606.54904171084;1886.350958289162
251;948.735;17389.7;15617.511497881467;1772.1885021185335
252;952.134;17217.0;15628.439375772285;1588.5606242277154
253;955.535;17243.1;15639.336145810588;1603.7638541894103
254;958.932;17104.8;15650.205294309286;1454.5947056907135
255;962.33;17102.3;15661.050323618909;1441.2496763810905
256;965.726;16957.3;15671.874750635943;1285.425249364056
257;969.12;16907.1;15682.682106669361;1224.4178933306375
258;972.514;16848.7;15693.475935882369;1155.2240641176322
259;975.906;16765.2;15704.259794682344;1060.9402053176564
260;979.296;16687.4;15715.037251028885;972.3627489711162
261;982.686;16677.6;15725.811883490982;951.7881165090166
262;986.073;16602.3;15736.58728036126;865.7127196387391
263;989.46;16499.4;15747.367039450206;752.0329605497955
264;992.845;16391.1;15758.154767225422;632.9452327745767
265;996.23;16445.2;15768.954077674845;676.2459223251553
266;999.611;16386.6;15779.768591115855;606.8314088841435
267;1002.99;16223.3;15790.601934628294;432.6980653717055
268;1006.37;16261.9;15801.457741360304;460.44225863969586
269;1009.75;16258.6;15812.339648787001;446.260351212999
270;1013.13;16157.6;15823.251298987925;334.34870101207525
271;1016.51;16245.3;15834.196338505222;411.10366149477704
272;1019.88;16265.9;15845.17841722451;420.7215827754899
273;1023.26;16211.1;15856.201189142434;354.8988108575668
274;1026.63;16250.9;15867.268312462866;383.631687537134
275;1030.0;16188.8;15878.383448938648;310.41655106135113
276;1033.37;16312.8;15889.55026415894;423.2497358410601
277;1036.74;16234.0;15900.772426817062;333.2275731829377
278;1040.1;16306.8;15912.053609838818;394.7463901611809
279;1043.47;16261.4;15923.39748948229;338.0025105177101
280;1046.83;16309.7;15934.807745953012;374.89225404698846
281;1050.2;16267.8;15946.288062836547;321.5119371634519
282;1053.56;16133.1;15957.842127467373;175.25787253262752
283;1056.92;16305.6;15969.473630395069;336.1263696049318
284;1060.28;16166.1;15981.18626392178;184.9137360782206
285;1063.64;16244.3;15992.983723710906;251.31627628909337
286;1066.99;16217.3;16004.869707274993;212.43029272500644
287;1070.35;16280.4;16016.84791463973;263.5520853602702
288;1073.7;16176.7;16028.9220479551;147.7779520449003
289;1077.06;16129.3;16041.095812006597;88.20418799340223
290;1080.41;16203.8;16053.37291305748;150.42708694251996
291;1083.76;16107.6;16065.757058253055;41.842941746945144
292;1087.11;16123.0;16078.25195624289;44.74804375711028
293;1090.46;16023.3;16090.861316094955;-67.56131609495606
294;1093.8;16062.2;16103.588847324705;-41.38884732470433
295;1097.15;16023.0;16116.437584510035;-93.43758451003487
296;1100.49;16172.7;16129.410148754274;43.28985124572682
297;1103.83;16230.9;16142.50822771928;88.39177228072003
298;1107.17;16220.8;16155.733509499803;65.06649050019587
299;1110.51;16153.9;16169.087683074527;-15.18768307452774
300;1113.85;16251.0;16182.572438072792;68.42756192720844
301;1117.19;16296.7;16196.189312398985;100.51068760101589
302;1120.53;16295.1;16209.939844641754;85.1601553582459
303;1123.86;16324.3;16223.82557439485;100.47442560514901
304;1127.2;16392.0;16237.848042103615;154.15195789638528
305;1130.53;16454.8;16252.008789218138;202.79121078186108
306;1133.86;16450.4;16266.309358730026;184.0906412699751
307;1137.19;16438.4;16280.751295658774;157.64870434122713
308;1140.52;16512.3;16295.336146864776;216.96385313522296
309;1143.85;16397.6;16310.065460784908;87.53453921509026
310;1147.17;16578.3;16324.940788025675;253.35921197432435
311;1150.5;16604.6;16339.963680068913;264.6363199310854
312;1153.82;16541.7;16355.135690930048;186.5643090699523
313;1157.14;16519.4;16370.45837727086;148.94162272914218
314;1160.46;16608.4;16385.933297618758;222.46670238124352
315;1163.78;16546.8;16401.56201199056;145.2379880094377
316;1167.1;16591.6;16417.34608262775;174.2539173722471
317;1170.42;16466.4;16433.287073224197;33.112926775804226
318;1173.73;16580.3;16449.386549216288;130.9134507837116
319;1177.05;16571.7;16465.64607637155;106.05392362844941
320;1180.36;16435.3;16482.06722176664;-46.76722176664043
321;1183.67;16491.2;16498.65155353872;-7.451553538718144
322;1186.98;16454.4;16515.40017262043;-61.0001726204282
323;1190.29;16524.3;16532.314105503396;-8.014105503396422
324;1193.6;16453.0;16549.393769287522;-96.39376928752245
325;1196.91;16437.4;16566.639501011807;-129.23950101180526
326;1200.21;16541.7;16584.0506747415;-42.35067474149764
327;1203.52;16618.8;16601.625373439256;17.17462656074349
328;1206.82;16645.7;16619.36125698449;26.338743015508953
329;1210.13;16700.6;16637.255985428354;63.34401457164495
330;1213.43;16721.2;16655.307219085444;65.89278091455708
331;1216.73;16804.1;16673.5126189038;130.58738109620026
332;1220.02;16909.3;16691.869846490372;217.43015350962742
333;1223.32;16927.8;16710.376564757975;217.42343524202442
334;1226.62;17010.3;16729.030438793707;281.26956120629256
335;1229.91;17095.3;16747.82913585889;347.4708641411089
336;1233.2;17111.9;16766.770326027538;345.12967397246393
337;1236.5;17214.8;16785.851682848348;428.9483171516513
338;1239.79;17281.7;16805.070883321325;476.6291166786759
339;1243.07;17354.6;16824.425608735943;530.1743912640559
340;1246.36;17614.0;16843.913545147963;770.0864548520367
341;1249.65;17570.7;16863.53238391488;707.1676160851202
342;1252.94;17654.6;16883.279824095058;771.3201759049407
343;1256.22;17777.7;16903.153571818522;874.5464281814784
344;1259.5;17778.1;16923.151340928507;854.9486590714914
345;1262.79;17906.2;16943.2708540137;962.9291459863016
346;1266.07;17994.6;16963.509842212257;1031.0901577877412
347;1269.35;17951.9;16983.866046291616;968.0339537083855
348;1272.62;18101.8;17004.337217330103;1097.4627826698961
349;1275.9;18201.0;17024.92111608637;1176.0788839136294
350;1279.18;18240.8;17045.6155142937;1195.1844857063006
351;1282.45;18203.1;17066.418195446146;1136.681804553853
352;1285.72;18341.1;17087.32695498961;1253.7730450103882
353;1289.0;18397.2;17108.339599736795;1288.8604002632055
354;1292.27;18417.3;17129.453949038125;1287.8460509618744
355;1295.54;18505.4;17150.667835132626;1354.732164867375
356;1298.81;18485.6;17171.979103137783;1313.620896862216
357;1302.07;18504.1;17193.38561171839;1310.714388281609
358;1305.34;18630.2;17214.885232675442;1415.3147673245585
359;1308.6;18732.4;17236.47585091708;1495.9241490829227
360;1311.87;18915.7;17258.15536550458;1657.5446344954216
361;1315.13;18806.6;17279.921690458457;1526.6783095415412
362;1318.39;18980.7;17301.772756374656;1678.927243625345
363;1321.65;19061.6;17323.706509115902;1737.8934908840965
364;1324.91;19149.6;17345.72091133418;1803.879088665817
365;1328.16;19278.3;17367.813943060406;1910.4860569395933
366;1331.42;19425.8;17389.98360236427;2035.8163976357282
367;1334.67;19505.1;17412.227906420314;2092.8720935796846
368;1337.93;19720.7;17434.544892761223;2286.1551072387774
369;1341.18;19772.4;17456.932619848405;2315.4673801515964
370;1344.43;19963.2;17479.389169004808;2483.810830995193
371;1347.68;20025.7;17501.91264470804;2523.787355291959
372;1350.93;20103.8;17524.501176273807;2579.2988237261925
373;1354.18;20172.3;17547.15291825568;2625.1470817443187
374;1357.42;20022.7;17569.866051000212;2452.833948999789
375;1360.67;20146.4;17592.63878110542;2553.7612188945823
376;1363.91;20034.0;17615.469339697658;2418.530660302342
377;1367.15;19882.7;17638.35598344087;2244.344016559131
378;1370.39;19918.8;17661.296993184304;2257.5030068156957
379;1373.63;19836.8;17684.290672220624;2152.509327779375
380;1376.87;19799.8;17707.335346417527;2092.4646535824722
381;1380.11;19679.4;17730.42936316779;1948.9706368322113
382;1383.35;19703.8;17753.571090788835;1950.2289092111641
383;1386.58;19666.9;17776.758917087784;1890.1410829122178
384;1389.81;19644.7;17799.99124937404;1844.7087506259595
385;1393.05;19565.2;17823.266513858416;1741.9334861415846
386;1396.28;19566.9;17846.583155198798;1720.3168448012038
387;1399.51;19549.3;17869.939635472394;1679.3603645276053
388;1402.74;19430.1;17893.33443395959;1536.7655660404089
389;1405.97;19524.4;17916.766046734356;1607.6339532656457
390;1409.19;19554.3;17940.232985238315;1614.0670147616838
391;1412.42;19481.1;17963.733776989437;1517.366223010562
392;1415.64;19445.2;17987.266965646344;1457.9330343536567
393;1418.86;19480.6;18010.83111004132;1469.7688899586792
394;1422.09;19415.4;18034.42478358596;1380.975216414041
395;1425.31;19600.8;18058.046574389547;1542.7534256104518
396;1428.53;19460.0;18081.695084371102;1378.304915628898
397;1431.74;19474.3;18105.36893087716;1368.9310691228384
398;1434.96;19509.7;18129.0667450373;1380.6332549627004
399;1438.18;19469.2;18152.787171670407;1316.412828329594
400;1441.39;19392.6;18176.52886940169;1216.0711305983095
401;1444.6;19362.1;18200.290510020484;1161.8094899795142
402;1447.82;19412.7;18224.070777476823;1188.6292225231773
403;1451.03;19324.3;18247.86836733881;1076.431632661188
404;1454.24;19271.1;18271.681987060845;999.4180129391534
405;1457.44;19314.3;18295.51035486165;1018.7896451383494
406;1460.65;19350.0;18319.35219895411;1030.6478010458886
407;1463.86;19267.0;18343.206257738995;923.7937422610048
408;1467.06;19312.9;18367.071279923537;945.8287200764644
409;1470.27;19200.3;18390.94602345292;809.3539765470778
410;1473.47;19286.3;18414.829255730605;871.4707442693943
411;1476.67;19226.8;18438.719752253568;788.0802477464313
412;1479.87;19237.7;18462.616297233486;775.0837027665148
413;1483.07;19282.7;18486.517682762824;796.1823172371769
414;1486.26;19256.6;18510.42270868487;746.177291315129
415;1489.46;19302.4;18534.33018280473;768.0698171952718
416;1492.66;19299.2;18558.238920389278;740.9610796107227
417;1495.85;19314.4;18582.14774438608;732.2522556139229
418;1499.04;19325.2;18606.05548515229;719.1445148477105
419;1502.23;19367.0;18629.96098036758;737.0390196324188
420;1505.42;19453.9;18653.863074903074;800.036925096927
421;1508.61;19518.6;18677.760621000267;840.8393789997317
422;1511.8;19572.4;18701.652478901004;870.7475210989978
423;1514.99;19793.8;18725.537517255507;1068.2624827444924
424;1518.17;19753.2;18749.414613421468;1003.7853865785328
425;1521.36;19896.8;18773.28265543919;1123.5173445608089
426;1524.54;19958.4;18797.140541386823;1161.2594586131781
427;1527.72;20027.2;18820.98718057768;1206.2128194223224
428;1530.9;20114.4;18844.82149393766;1269.578506062342
429;1534.08;20214.9;18868.642414454796;1346.257585545205
430;1537.26;20338.1;18892.4488878129;1445.6511121870972
431;1540.44;20528.4;18916.239873158356;1612.1601268416453
432;1543.61;20654.6;18940.014344094056;1714.585655905943
433;1546.79;20863.6;18963.771290344484;1899.828709655514
434;1549.96;21003.9;18987.509718779977;2016.390281220025
435;1553.14;21288.0;19011.228655269144;2276.771344730856
436;1556.31;21309.8;19034.927145844493;2274.8728541555065
437;1559.48;21375.4;19058.604259306223;2316.7957406937785
438;1562.65;21385.9;19082.259087203267;2303.6409127967345
439;1565.81;21465.1;19105.890744252498;2359.2092557475007
440;1568.98;21568.8;19129.498368207187;2439.3016317928123
441;1572.14;21769.3;19153.081120412684;2616.2188795873153
442;1575.31;21775.2;19176.638186607343;2598.561813392658
443;1578.47;21976.7;19200.16877869171;2776.5312213082907
444;1581.63;21909.6;19223.672134551936;2685.927865448062
445;1584.79;21990.1;19247.14751983948;2742.9524801605185
446;1587.95;22070.0;19270.594227065056;2799.4057729349443
447;1591.11;21877.7;19294.011576168894;2583.688423831107
448;1594.27;21793.4;19317.398915085272;2476.0010849147293
449;1597.42;21764.8;19340.75561758536;2424.0443824146387
450;1600.58;21723.6;19364.081082200322;2359.5189177996763
451;1603.73;21567.2;19387.374731701755;2179.8252682982456
452;1606.89;21437.8;19410.636012456427;2027.1639875435721
453;1610.04;21378.3;19433.86439262936;1944.4356073706404
454;1613.19;21221.0;19457.059360657207;1763.9406393427926
455;1616.34;21209.7;19480.220424420975;1729.4795755790255
456;1619.48;21095.0;19503.347109441074;1591.6528905589257
457;1622.63;21071.4;19526.438958532704;1544.961041467297
458;1625.78;20825.8;19549.49553042759;1276.3044695724093
459;1628.92;20797.8;19572.51639930705;1225.2836006929501
460;1632.06;20893.1;19595.50115211543;1297.5988478845684
461;1635.2;20725.1;19618.449388049907;1106.6506119500918
462;1638.34;20609.4;19641.360719283635;968.0392807163662
463;1641.48;20574.0;19664.234769056282;909.765230943718
464;1644.62;20730.7;19687.071170287913;1043.6288297120882
465;1647.76;20650.6;19709.869564996232;940.7304350037666
466;1650.9;20707.2;19732.629605635215;974.5703943647859
467;1654.03;20737.8;19755.35095406614;982.4490459338595
468;1657.16;20749.9;19778.03328189598;971.8667181040219
469;1660.3;20787.6;19800.676270556178;986.9237294438208
470;1663.43;20820.6;19823.279611196846;997.320388803153
471;1666.56;20823.6;19845.84300483732;977.7569951626792
472;1669.69;20862.7;19868.366162470124;994.3338375298772
473;1672.81;20900.8;19890.848804865345;1009.951195134654
474;1675.94;20919.2;19913.290662736403;1005.909337263598
475;1679.07;20840.7;19935.691476896205;905.0085231037956
476;1682.19;20984.1;19958.05099821675;1026.049001783249
477;1685.31;20916.1;19980.36898662011;935.7310133798892
478;1688.44;20889.8;20002.645212288844;887.1547877111552
479;1691.56;20885.0;20024.87945476282;860.1205452371796
480;1694.68;20926.7;20047.07150245344;879.6284975465605
481;1697.79;20954.7;20069.2211523733;885.4788476267022
482;1700.91;20911.6;20091.32821033126;820.2717896687391
483;1704.03;20847.3;20113.392490990977;733.9075090090228
484;1707.14;20790.0;20135.413817218807;654.5861827811932
485;1710.26;20848.7;20157.392019220177;691.307980779824
486;1713.37;20678.3;20179.326933746364;498.9730662536349
487;1716.48;20765.8;20201.21840446171;564.5815955382895
488;1719.59;20664.4;20223.066280020284;441.333719979717
489;1722.7;20661.3;20244.870414721972;416.42958527802693
490;1725.81;20522.9;20266.630667280002;256.2693327199995
491;1728.92;20535.3;20288.346900571876;246.9530994281231
492;1732.02;20639.3;20310.018980037778;329.28101996222176
493;1735.13;20539.8;20331.64677358741;208.153226412589
494;1738.23;20559.7;20353.23015242328;206.4698475767218
495;1741.33;20632.4;20374.768989829412;257.63101017058943
496;1744.43;20643.8;20396.263161154537;247.53683884546263
497;1747.53;20654.2;20417.712544323676;236.48745567632432
498;1750.63;20728.3;20439.11701973721;289.1829802627908
499;1753.73;20827.2;20460.476470160378;366.72352983962264
500;1756.83;20901.0;20481.790781250253;419.2092187497474
501;1759.92;20917.0;20503.059842331117;413.94015766888333
502;1763.02;20996.7;20524.283546919334;472.41645308066654
503;1766.11;21025.0;20545.46179267064;479.53820732935856
504;1769.2;20996.7;20566.594481964945;430.10551803505587
505;1772.29;21200.2;20587.68152197753;612.5184780224699
506;1775.38;21272.2;20608.722824184726;663.4771758152747
507;1778.47;21459.7;20629.71830618802;829.9816938119802
508;1781.56;21375.8;20650.667892223668;725.1321077763314
509;1784.65;21530.2;20671.571514827723;858.6284851722776
510;1787.73;21484.1;20692.429113787573;791.6708862124251
511;1790.82;21560.8;20713.240637476865;847.559362523134
512;1793.9;21567.0;20734.006042185945;832.9939578140547
513;1796.98;21596.4;20754.725292680745;841.6747073192564
514;1800.06;21657.6;20775.398362057127;882.2016379428715
515;1803.14;21700.1;20796.025231827687;904.0747681723115
516;1806.22;21713.2;20816.605892327025;896.594107672976
517;1809.3;21665.0;20837.14034293047;827.8596570695299
518;1812.37;21619.7;20857.628591979283;762.0714080207181
519;1815.45;21598.6;20878.07065609331;720.5293439066882
520;1818.52;21654.7;20898.466559513105;756.2334404868961
521;1821.59;21664.6;20918.8163336845;745.7836663154994
522;1824.66;21602.0;20939.12001761566;662.8799823843401
523;1827.74;21476.7;20959.377657772573;517.3223422274277
524;1830.8;21548.3;20979.58930725002;568.7106927499808
525;1833.87;21481.3;20999.755024315982;481.5449756840171
526;1836.94;21382.4;21019.874872925553;362.5251270744484
527;1840.01;21404.1;21039.948921849274;364.15107815072406
528;1843.07;21482.2;21059.97724348293;422.2227565170724
529;1846.13;21305.2;21079.959913863804;225.24008613619662
530;1849.2;21250.9;21099.897013251408;151.00298674859368
531;1852.26;21221.4;21119.788624157623;101.61137584237804
532;1855.32;21286.1;21139.634830604344;146.4651693956548
533;1858.38;21341.4;21159.435717629567;181.96428237043438
534;1861.44;21310.7;21179.191371735928;131.5086282640732
535;1864.49;21429.9;21198.90188124569;230.9981187543126
536;1867.55;21444.3;21218.56733579621;225.73266420378786
537;1870.6;21508.7;21238.187827334834;270.5121726651669
538;1873.66;21565.3;21257.763450066195;307.53654993380405
539;1876.71;21599.2;21277.294300900052;321.90569909994883
540;1879.76;21594.1;21296.78047982152;297.31952017848016
541;1882.81;21742.3;21316.22209003477;426.0779099652282
542;1885.86;21851.6;21335.61923771717;515.9807622828303
543;1888.91;21926.8;21354.972033306836;571.827966693163
544;1891.96;21986.3;21374.280592401705;612.0194075982945
545;1895.0;21964.2;21393.545036317988;570.6549636820127
546;1898.05;22004.8;21412.76549249209;592.0345075079094
547;1901.09;22213.7;21431.94209406696;781.7579059330419
548;1904.13;22335.4;21451.07498010588;884.3250198941205
549;1907.17;22283.0;21470.164297489748;812.8357025102523
550;1910.21;22387.0;21489.210201942693;897.789798057307
551;1913.25;22525.3;21508.212857317183;1017.0871426828162
552;1916.29;22590.1;21527.17243644358;1062.927563556419
553;1919.33;22630.7;21546.089122323105;1084.610877676896
554;1922.36;22610.7;21564.963108586242;1045.7368914137587
555;1925.4;22689.9;21583.794599709585;1106.1054002904166
556;1928.43;22789.2;21602.583810627093;1186.6161893729077
557;1931.46;22779.3;21621.330967333746;1157.969032666253
558;1934.49;22794.8;21640.036307690694;1154.763692309305
559;1937.52;22841.4;21658.700081138773;1182.699918861228
560;1940.55;22760.3;21677.322548666427;1082.9774513335724
561;1943.58;22741.9;21695.903983089105;1045.9960169108963
562;1946.61;22757.0;21714.444668052012;1042.5553319479877
563;1949.63;22788.2;21732.944897660287;1055.2551023397136
564;1952.66;22753.3;21751.404976444606;1001.895023555393
565;1955.68;22762.0;21769.825219488204;992.1747805117957
566;1958.7;22693.3;21788.205951893273;905.0940481067264
567;1961.73;22764.2;21806.547508683736;957.6524913162648
568;1964.75;22695.6;21824.850233934445;870.7497660655536
569;1967.77;22587.8;21843.114481296772;744.685518703227
570;1970.78;22663.9;21861.34061312959;802.5593868704127
571;1973.8;22628.9;21879.52899923862;749.3710007613809
572;1976.82;22603.6;21897.680017455175;705.9199825448231
573;1979.83;22604.4;21915.794053104237;688.6059468957646
574;1982.84;22541.8;21933.87149856999;607.9285014300076
575;1985.86;22688.0;21951.912753122666;736.0872468773341
576;1988.87;22659.2;21969.918222111774;689.2817778882272
577;1991.88;22708.8;21987.888318247682;720.9116817523172
578;1994.89;22739.3;22005.823461133572;733.4765388664273
579;1997.9;22845.9;22023.724077581723;822.1759224182788
580;2000.9;22794.0;22041.59060173917;752.4093982608283
581;2003.91;22958.9;22059.423475974694;899.4765240253073
582;2006.91;22861.3;22077.223150181155;784.0768498188445
583;2009.92;22949.2;22094.99008324617;854.209916753829
584;2012.92;22992.4;22112.724741898124;879.6752581018773
585;2015.92;23077.0;22130.427601407482;946.5723985925179
586;2018.92;23027.0;22148.099145841446;878.9008541585536
587;2021.92;23117.0;22165.739868732926;951.260131267074
588;2024.92;23076.3;22183.350272403837;892.9497275961621
589;2027.92;23183.2;22200.930868688672;982.2691313113282
590;2030.91;23185.8;22218.482178351416;967.317821648583
591;2033.91;23307.8;22236.004731978755;1071.7952680212438
592;2036.9;23401.0;22253.499069830545;1147.5009301694554
593;2039.89;23286.2;22270.965742884568;1015.2342571154331
594;2042.89;23278.7;22288.405313593626;990.2946864063742
595;2045.88;23325.1;22305.818354562856;1019.2816454371423
596;2048.87;23295.1;22323.20544830032;971.8945516996791
597;2051.85;23254.6;22340.567187506906;914.0328124930929
598;2054.84;23340.1;22357.904174602438;982.1958253975608
599;2057.83;23302.8;22375.217021147062;927.5829788529372
600;2060.81;23193.7;22392.506348522853;801.1936514771478
601;2063.8;23301.6;22409.772787387716;891.8272126122829
602;2066.78;23171.1;22427.016976411487;744.0830235885114
603;2069.76;23143.6;22444.239563182255;699.3604368177439
604;2072.74;23112.0;22461.44120272893;650.558797271071
605;2075.72;23070.4;22478.622557074006;591.7774429259953
606;2078.7;23144.4;22495.784294745557;648.615705254444
607;2081.68;23169.0;22512.92709018943;656.0729098105694
608;2084.66;22924.9;22530.051624337604;394.8483756623973
609;2087.63;23025.4;22547.15858468279;478.24141531721034
610;2090.61;22966.3;22564.24866266616;402.0513373338399
611;2093.58;23008.0;22581.322554511273;426.67744548872724
612;2096.55;22921.2;22598.3809604622;322.81903953780056
613;2099.52;22856.2;22615.42458502976;240.7754149702414
614;2102.49;22847.0;22632.454135952954;214.54586404704605
615;2105.46;22918.9;22649.47032337853;269.429676621472
616;2108.43;22920.7;22666.473859598686;254.2261404013152
617;2111.4;22837.9;22683.4654595999;154.43454040009965
618;2114.36;22929.2;22700.445840910907;228.75415908909417
619;2117.33;22911.4;22717.415722604776;193.98427739522594
620;2120.29;23000.3;22734.375826042124;265.9241739578756
621;2123.25;23021.3;22751.326874523387;269.97312547661204
622;2126.21;23108.4;22768.269594008234;340.1304059917675
623;2129.17;23243.4;22785.204713156047;458.1952868439548
624;2132.13;23268.1;22802.13296402753;465.9670359724696
625;2135.09;23272.6;22819.055083265317;453.54491673468146
626;2138.05;23334.2;22835.971812171705;498.22818782829563
627;2141.01;23685.7;22852.883896584422;832.8161034155783
628;2143.96;23573.8;22869.79208732347;704.0079126765304
629;2146.91;23546.7;22886.697143536996;660.0028564630047
630;2149.87;23744.8;22903.599831413212;841.2001685867872
631;2152.82;23715.8;22920.500923740343;795.2990762596564
632;2155.77;23845.7;22937.401201718607;908.2987982813938
633;2158.72;23863.3;22954.301454501187;908.9985454988127
634;2161.67;23951.3;22971.202480324253;980.0975196757463
635;2164.62;24052.1;22988.10508651395;1063.9949134860472
636;2167.56;24026.7;23005.01009019739;1021.6899098026115
637;2170.51;24119.6;23021.918319141605;1097.6816808583935
638;2173.45;24105.3;23038.83061133051;1066.4693886694877
639;2176.39;24102.3;23055.74781572483;1046.5521842751696
640;2179.34;24072.4;23072.670791949957;999.7292080500447
641;2182.28;24263.3;23089.60041009682;1173.699589903179
642;2185.22;24171.3;23106.537550253623;1064.7624497463767
643;2188.16;24168.1;23123.48310424557;1044.6168957544287
644;2191.1;24078.7;23140.437974545475;938.2620254545254
645;2194.03;24112.7;23157.403074072303;955.2969259276979
646;2196.97;24118.1;23174.379325127622;943.7206748723765
647;2199.9;24168.6;23191.367659565934;977.2323404340641
648;2202.84;24192.8;23208.36901867895;984.4309813210493
649;2205.77;23952.4;23225.38435353067;727.0156464693318
650;2208.7;23927.3;23242.414625029396;684.8853749706032
651;2211.63;23953.3;23259.460801353587;693.8391986464121
652;2214.56;23916.9;23276.523857530552;640.3761424694494
653;2217.49;23852.9;23293.60477552597;559.29522447403
654;2220.42;23799.9;23310.704543709275;489.1954562907267
655;2223.34;23696.2;23327.82415604283;368.37584395717204
656;2226.27;23650.4;23344.96461138093;305.4353886190729
657;2229.19;23566.9;23362.12691226162;204.77308773838013
658;2232.12;23602.3;23379.31206427729;222.98793572271097
659;2235.04;23602.2;23396.521075068027;205.6789249319736
660;2237.96;23515.8;23413.75495450381;102.04504549619014
661;2240.88;23422.8;23431.014714511366;-8.214714511366765
662;2243.8;23614.9;23448.301368037857;166.59863196214428
663;2246.72;23550.2;23465.615845965465;84.58415403453546
664;2249.64;23524.1;23482.95908084234;41.140919157656754
665;2252.55;23405.2;23500.332006062465;-95.13200606246392
666;2255.47;23517.2;23517.735555431213;-0.5355554312118329
667;2258.38;23449.0;23535.169712385243;-86.16971238524275
668;2261.29;23551.1;23552.63445501101;-1.5344550110130513
669;2264.2;23576.7;23570.128900559557;6.571099440443504
670;2267.11;23629.4;23587.652150952745;41.74784904725675
671;2270.02;23643.2;23605.203308178137;37.99669182186335
672;2272.93;23660.0;23622.781474640764;37.21852535923608
673;2275.84;23828.3;23640.38575312561;187.91424687438848
674;2278.75;23848.8;23658.015246789837;190.7847532101623
675;2281.65;23878.0;23675.669060669727;202.3309393302734
676;2284.56;23963.7;23693.34630170941;270.3536982905898
677;2287.46;23979.1;23711.04607887631;268.0539211236901
678;2290.36;23940.0;23728.767503841373;211.23249615862733
679;2293.26;24067.1;23746.509690956067;320.5903090439315
680;2296.16;24238.1;23764.27175668416;473.82824331583834
681;2299.06;24298.9;23782.052820695277;516.8471793047247
682;2301.96;24300.6;23799.85200739732;500.747992602679
683;2304.86;24329.2;23817.668446366642;511.53155363335827
684;2307.75;24527.7;23835.501272187077;692.1987278129236
685;2310.65;24536.2;23853.349624557744;682.8503754422563
686;2313.54;24567.0;23871.21265009973;695.7873499002708
687;2316.44;24793.7;23889.089502262617;904.6104977373834
688;2319.33;24951.0;23906.97934145385;1044.0206585461492
689;2322.22;25328.1;23924.88133712696;1403.2186628730378
690;2325.11;25867.6;23942.79466917568;1924.805330824318
691;2328.0;25837.0;23960.718531525923;1876.281468474077
692;2330.89;25708.6;23978.652137351648;1729.9478626483506
693;2333.77;25315.1;23996.594718589604;1318.5052814103947
694;2336.66;25036.4;24014.545524476;1021.854475524
695;2339.54;25083.9;24032.503817432105;1051.3961825678962
696;2342.43;25098.2;24050.468870097735;1047.7311299022658
697;2345.31;25115.6;24068.439965626665;1047.1600343733335
698;2348.19;25062.6;24086.41639764998;976.1836023500182
699;2351.07;25229.6;24104.397470270353;1125.202529729646
700;2353.95;25243.2;24122.382497352268;1120.817502647733
701;2356.83;25193.3;24140.370804012233;1052.9291959877664
702;2359.71;25202.3;24158.36172657491;1043.9382734250903
703;2362.58;25256.4;24176.354611894247;1080.0453881057547
704;2365.46;25200.6;24194.348817263566;1006.2511827364324
705;2368.33;25225.2;24212.343710776637;1012.856289223364
706;2371.21;25286.6;24230.33867058974;1056.2613294102593
707;2374.08;25312.3;24248.3330849877;1063.966915012301
708;2376.95;25268.1;24266.32635281795;1001.7736471820499
709;2379.82;25287.2;24284.317883567583;1002.8821164324181
710;2382.69;25247.3;24302.30709674142;944.9929032585787
711;2385.56;25247.2;24320.29342187309;926.9065781269092
712;2388.43;25245.7;24338.27629794613;907.4237020538712
713;2391.29;25126.1;24356.255173213118;769.8448267868807
714;2394.16;25204.2;24374.22950500088;829.970494999121
715;2397.02;25260.7;24392.19875833467;868.5012416653299
716;2399.88;25203.3;24410.16240653941;793.1375934605894
717;2402.75;25132.6;24428.119931625035;704.4800683749636
718;2405.61;25197.0;24446.070823532846;750.9291764671543
719;2408.47;25159.1;24464.014579248953;695.0854207510456
720;2411.33;25048.8;24481.950703268725;566.8492967312741
721;2414.19;25056.6;24499.87870703837;556.7212929616289
722;2417.04;24946.0;24517.798107672566;428.2018923274336
723;2419.9;24950.1;24535.708427853184;414.3915721468147
724;2422.75;24975.7;24553.609194544086;422.09080545591496
725;2425.61;24988.8;24571.499938853027;417.30006114697244
726;2428.46;24868.3;24589.38019610867;278.91980389133096
727;2431.31;25005.2;24607.249505812673;397.9504941873274
728;2434.16;24959.8;24625.107410255907;334.6925897440924
729;2437.01;24917.1;24642.953455708717;274.1465442912813
730;2439.86;25020.3;24660.787191788382;359.5128082116171
731;2442.71;24845.1;24678.608170853608;166.49182914639096
732;2445.56;24875.1;24696.41594885821;178.68405114178677
733;2448.4;24839.4;24714.210083420938;125.18991657906372
734;2451.25;24971.0;24731.99013394736;239.00986605263824
735;2454.09;24911.6;24749.755661094936;161.8443389050626
736;2456.93;24882.4;24767.506227911206;114.89377208879523
737;2459.78;24989.1;24785.241399062143;203.85860093785595
738;2462.62;24949.0;24802.960740362643;146.03925963735674
739;2465.46;24942.4;24820.663819666173;121.73618033382809
740;2468.3;24936.6;24838.350206286585;98.24979371341396
741;2471.13;25047.7;24856.01947075507;191.68052924493168
742;2473.97;24935.1;24873.67118458531;61.42881541468887
743;2476.81;25012.9;24891.304921207786;121.59507879221565
744;2479.64;25024.4;24908.92025466725;115.47974533275192
745;2482.47;25096.3;24926.516760224407;169.78323977559194
746;2485.31;25140.0;24944.09401429474;195.9059857052598
747;2488.14;25286.3;24961.65159499157;324.6484050084291
748;2490.97;25310.2;24979.18908238726;331.01091761274074
749;2493.8;25214.6;24996.706059800617;217.89394019938118
750;2496.63;25380.3;25014.202113860574;366.0978861394251
751;2499.46;25421.9;25031.67683337499;390.2231666250118
752;2502.28;25506.6;25049.12981081272;457.4701891872792
753;2505.11;25400.8;25066.56064254484;334.23935745516064
754;2507.93;25559.7;25083.968929517097;475.7310704829033
755;2510.76;25716.4;25101.354276017628;615.0457239823736
756;2513.58;25693.4;25118.716291091885;574.6837089081164
757;2516.4;25830.9;25136.05458993576;694.8454100642412
758;2519.22;25821.3;25153.36879349196;667.9312065080376
759;2522.04;25841.7;25170.658529651635;671.0414703483657
760;2524.86;25981.4;25187.923432985248;793.4765670147535
761;2527.68;25987.2;25205.16314477367;782.0368552263317
762;2530.5;26065.4;25222.377314232526;843.0226857674752
763;2533.31;26126.7;25239.565598397807;887.134401602194
764;2536.13;26097.9;25256.727662735706;841.1723372642955
765;2538.94;26288.6;25273.863181583743;1014.7368184162551
766;2541.75;26265.1;25290.97183769114;974.128162308858
767;2544.57;26329.9;25308.05332395449;1021.8466760455121
768;2547.38;26374.3;25325.10734301167;1049.192656988329
769;2550.19;26425.8;25342.133607719006;1083.666392280993
770;2553.0;26478.7;25359.131841424714;1119.5681585752864
771;2555.8;26367.9;25376.101778313685;991.7982216863165
772;2558.61;26457.3;25393.043163766473;1064.256836233526
773;2561.41;26470.1;25409.955753081602;1060.1442469183967
774;2564.22;26505.8;25426.83931220015;1078.9606877998485
775;2567.02;26455.2;25443.69361766464;1011.5063823353594
776;2569.83;26547.0;25460.518456807193;1086.4815431928073
777;2572.63;26485.8;25477.313627074975;1008.4863729250246
778;2575.43;26504.0;25494.078936779955;1009.9210632200447
779;2578.23;26463.6;25510.814204318962;952.7857956810367
780;2581.03;26455.4;25527.519258188015;927.8807418119868
781;2583.83;26405.1;25544.193936410975;860.9060635890237
782;2586.62;26371.9;25560.838086290492;811.0619137095091
783;2589.42;26364.0;25577.45156373826;786.548436261739
784;2592.22;26225.2;25594.034232776576;631.1657672234251
785;2595.01;26178.9;25610.585965293194;568.3140347068074
786;2597.8;26225.3;25627.106639487534;598.193360512465
787;2600.59;26174.9;25643.59613924213;531.303860757871
788;2603.39;26036.3;25660.054354421434;376.245645578565
789;2606.18;26110.2;25676.48118020294;433.71881979706086
790;2608.97;26132.9;25692.876515526594;440.02348447340773
791;2611.75;26159.3;25709.240263669515;450.05973633048416
792;2614.54;25990.6;25725.572332309046;265.0276676909525
793;2617.33;25982.2;25741.872633623094;240.32736637690687
794;2620.11;26072.1;25758.141082439837;313.95891756016135
795;2622.9;26082.7;25774.37759599071;308.32240400929004
796;2625.68;26039.1;25790.58209464673;248.51790535327018
797;2628.46;26013.3;25806.754501862128;206.54549813787162
798;2631.24;25961.9;25822.894743576293;139.0052564237085
799;2634.02;26059.2;25839.002747794053;220.19725220594773
800;2636.8;26102.7;25855.078443910275;247.62155608972535
801;2639.58;26021.9;25871.12176352178;150.77823647822152
802;2642.36;26230.0;25887.13264070158;342.8673592984196
803;2645.13;26087.8;25903.11101103045;184.68898896954852
804;2647.91;26260.7;25919.056813517833;341.64318648216795
805;2650.68;26499.2;25934.969989020035;564.2300109799653
806;2653.46;26366.4;25950.850481809797;415.54951819020425
807;2656.23;26403.6;25966.698241802133;436.901758197866
808;2659.0;26477.1;25982.513223067548;494.58677693245045
809;2661.77;26593.9;25998.295384045567;595.6046159544348
810;2664.54;26797.7;26014.044688121572;783.6553118784286
811;2667.31;26870.9;26029.761104636982;841.1388953630194
812;2670.08;26920.2;26045.444610769755;874.7553892302458
813;2672.84;26976.7;26061.095192109202;915.6048078907988
814;2675.61;27128.9;26076.71284299218;1052.187157007822
815;2678.38;27177.2;26092.297566911562;1084.9024330884386
816;2681.14;27149.0;26107.849377882096;1041.1506221179043
817;2683.9;27321.0;26123.368300767524;1197.6316992324755
818;2686.66;27381.1;26138.854370843095;1242.2456291569033
819;2689.42;27503.8;26154.307635360336;1349.4923646396637
820;2692.18;27533.4;26169.728153993223;1363.6718460067787
821;2694.94;27662.4;26185.115999910657;1477.2840000893448
822;2697.7;27790.4;26200.47125991823;1589.9287400817702
823;2700.46;27819.2;26215.794035594372;1603.4059644056288
824;2703.21;27699.3;26231.084444416774;1468.215555583225
825;2705.97;27785.9;26246.34261989718;1539.5573801028222
826;2708.72;27772.7;26261.56871022947;1511.131289770532
827;2711.48;27769.7;26276.7628790031;1492.9371209968995
828;2714.23;27708.9;26291.92530491883;1416.9746950811714
829;2716.98;27828.7;26307.05618160678;1521.6438183932223
830;2719.73;27755.6;26322.155716866808;1433.4442831331908
831;2722.48;27777.9;26337.224133715205;1440.675866284797
832;2725.23;27797.2;26352.261669502688;1444.9383304973126
833;2727.98;27590.0;26367.268575986745;1222.7314240132546
834;2730.72;27587.9;26382.245119374238;1205.6548806257633
835;2733.47;27534.0;26397.19157809932;1136.8084219006814
836;2736.21;27421.9;26412.108242652674;1009.7917573473278
837;2738.96;27343.3;26426.99541489305;916.304585106951
838;2741.7;27274.2;26441.853406777092;832.3465932229083
839;2744.44;27174.0;26456.682539424484;717.3174605755157
840;2747.18;27188.8;26471.483142278354;717.3168577216456
841;2749.92;27068.2;26486.255551954986;581.9444480450147
842;2752.66;27093.7;26501.000112243826;592.6998877561746
843;2755.4;27039.0;26515.717172753742;523.2828272462575
844;2758.13;26968.3;26530.407089020606;437.8929109793935
845;2760.87;26886.6;26545.0702218131;341.5297781868976
846;2763.6;26949.7;26559.70693627883;389.99306372116916
847;2766.34;26850.2;26574.31760098068;275.88239901931956
848;2769.07;26850.7;26588.902588381457;261.79741161854326
849;2771.8;26840.8;26603.462273702768;237.3377262972317
850;2774.53;26864.4;26617.99703478419;246.40296521580967
851;2777.26;26886.6;26632.507251838662;254.0927481613362
852;2779.99;26782.6;26646.993307543114;135.60669245688405
853;2782.72;26882.6;26661.455587115397;221.14441288460148
854;2785.45;26893.8;26675.894477129412;217.90552287058745
855;2788.18;26917.4;26690.310366370493;227.08963362950817
856;2790.9;26993.3;26704.70364580302;288.5963541969795
857;2793.63;26906.2;26719.07470866227;187.12529133773205
858;2796.35;27067.4;26733.423951069493;333.9760489305081
859;2799.07;27210.0;26747.751771017192;462.24822898280763
860;2801.79;27242.8;26762.058569837594;480.74143016240487
861;2804.51;27188.3;26776.344753485402;411.9552465145971
862;2807.23;27377.4;26790.610732722707;586.7892672772941
863;2809.95;27364.0;26804.856922431136;559.1430775688641
864;2812.67;27535.3;26819.083743360174;716.2162566398256
865;2815.39;27676.1;26833.29162185073;842.8083781492678
866;2818.1;27639.9;26847.480991405853;792.4190085941482
867;2820.82;27693.3;26861.652293956646;831.6477060433535
868;2823.53;27860.9;26875.805979358414;985.0940206415871
869;2826.25;27868.1;26889.94250578292;978.1574942170773
870;2828.96;27924.2;26904.062341252844;1020.1376587471568
871;2831.67;28026.1;26918.165963572417;1107.9340364275813
872;2834.38;27943.2;26932.25386074725;1010.9461392527519
873;2837.09;28059.3;26946.326531862258;1112.9734681377413
874;2839.8;28056.6;26960.384486111794;1096.2155138882044
875;2842.5;28236.4;26974.428243819937;1261.9717561800644
876;2845.21;28192.8;26988.458336272906;1204.341663727093
877;2847.92;28242.7;27002.475307376633;1240.2246926233674
878;2850.62;28203.2;27016.47971308045;1186.7202869195498
879;2853.33;28155.4;27030.472121735926;1124.9278782640758
880;2856.03;28224.9;27044.45311356182;1180.4468864381815
881;2858.73;28237.1;27058.42328002616;1178.6767199738388
882;2861.43;28224.0;27072.383224401427;1151.6167755985734
883;2864.13;27994.0;27086.33356174684;907.6664382531599
884;2866.83;28132.2;27100.27491863777;1031.9250813622311
885;2869.53;28131.9;27114.207930726232;1017.6920692737694
886;2872.23;27969.8;27128.13324398349;841.6667560165079
887;2874.92;27874.4;27142.051514557712;732.3484854422895
888;2877.62;27838.8;27155.96340701371;682.8365929862885
889;2880.31;27763.7;27169.869593239786;593.8304067602148
890;2883.01;27739.2;27183.770751952576;555.4292480474251
891;2885.7;27628.6;27197.667567807002;430.9324321929962
892;2888.39;27646.6;27211.560731012258;435.0392689877408
893;2891.08;27630.4;27225.450936086858;404.9490639131436
894;2893.77;27637.8;27239.338881899712;398.4611181002874
895;2896.46;27635.2;27253.22527136918;381.9747286308193
896;2899.15;27496.9;27267.110811398223;229.78918860177873
897;2901.83;27413.8;27280.996212709528;132.80378729047152
898;2904.52;27303.1;27294.882188323663;8.217811676335259
899;2907.21;27342.9;27308.769452589244;34.13054741075757
900;2909.89;27346.1;27322.658719937033;23.441280062965234
901;2912.57;27316.4;27336.550705139103;-20.150705139101774
902;2915.26;27320.6;27350.44612320194;-29.846123201939918
903;2917.94;27448.6;27364.345487826493;84.25451217350565
904;2920.62;27334.2;27378.24901455096;-44.04901455095751
905;2923.3;27396.4;27392.15691975607;4.243080243930308
906;2925.98;27407.9;27406.068979772917;1.8310202270840819
907;2928.65;27422.3;27419.984970975;2.3150290249977843
908;2931.33;27492.3;27433.90466975411;58.395330245890364
909;2934.01;27693.4;27447.82785252517;245.57214747483158
910;2936.68;27692.9;27461.754296287036;231.14570371296577
911;2939.35;27750.7;27475.68378049428;275.0162195057201
912;2942.03;27823.1;27489.616086912905;333.48391308709324
913;2944.7;28028.3;27503.551000059062;524.7489999409372
914;2947.37;28002.9;27517.488307783722;485.41169221627933
915;2950.04;28193.7;27531.42780318535;662.2721968146507
916;2952.71;28363.6;27545.369284216515;818.2307157834839
917;2955.38;28245.8;27559.31255545249;686.4874445475107
918;2958.05;28478.7;27573.257429650843;905.4425703491579
919;2960.71;28495.2;27587.203726434018;907.9962735659828
920;2963.38;28610.3;27601.151274478852;1009.1487255211468
921;2966.04;28654.8;27615.09991154213;1039.7000884578702
922;2968.71;28565.4;27629.049485472107;936.3505145278941
923;2971.37;28771.3;27642.999854514026;1128.3001454859732
924;2974.03;28850.1;27656.95088627662;1193.1491137233788
925;2976.69;28934.0;27670.902459651625;1263.0975403483753
926;2979.35;28862.3;27684.854465462256;1177.4455345377428
927;2982.01;28935.2;27698.80680716269;1236.3931928373095
928;2984.67;28937.7;27712.759399981544;1224.9406000184572
929;2987.33;28966.4;27726.712171511346;1239.6878284886552
930;2989.99;28871.7;27740.665061594034;1131.0349384059664
931;2992.64;29072.1;27754.618022468403;1317.4819775315955
932;2995.3;28989.7;27768.57101768359;1221.1289823164116
933;2997.95;28889.0;27782.52402396353;1106.4759760364686
