;Raman shift;Intensity;Baseline;Corrected Intensity
0;51.3771;6280.44;6693.423725489717;-412.9837254897175
1;55.1338;6280.44;6760.854263387121;-480.41426338712154
2;58.889;7099.78;6828.280675577136;271.49932442286354
3;62.6428;8402.89;6895.694037013883;1507.1959629861167
4;66.395;9423.56;6963.085425366468;2460.474574633531
5;70.1436;10901.4;7030.4459333759605;3870.954066624039
6;73.8928;13114.2;7097.766678388168;6016.433321611833
7;77.6406;15178.7;7165.038816458429;8013.6611835415715
8;81.3868;18757.3;7232.253563806417;11525.046436193581
9;85.1315;24054.8;7299.402216788407;16755.397783211592
10;88.8748;32400.2;7366.476187011134;25033.723812988865
11;92.6144;40493.7;7433.467053635317;33060.23294636468
12;96.3546;43546.9;7500.366646158904;36046.5333538411
13;100.093;42447.3;7567.167124682169;34880.13287531783
14;103.831;34874.9;7633.861009770725;27241.038990229277
15;107.564;27001.6;7700.441170791511;19301.15882920849
16;111.298;23166.2;7766.900749521846;15399.299250478154
17;115.031;21783.1;7833.233080750643;13949.866919249354
18;118.763;21237.6;7899.431653259803;13338.168346740196
19;122.49;21606.3;7965.490095329887;13640.809904670114
20;126.218;23027.4;8031.402168623136;14995.997831376866
21;129.945;26524.0;8097.161771209886;18426.838228790115
22;133.668;30730.9;8162.76295112044;22568.137048879562
23;137.392;32646.8;8228.199940653492;24418.600059346507
24;141.115;33257.6;8293.467197789105;24964.132802210894
25;144.833;30432.6;8358.559424693334;22074.040575306666
26;148.553;26334.3;8423.471573173565;17910.828426826432
27;152.271;23414.6;8488.198815777585;14926.401184222414
28;155.985;21660.9;8552.736504161465;13108.163495838537
29;159.7;20524.0;8617.080139245283;11906.919860754717
30;163.413;20378.0;8681.22535303075;11696.77464696925
31;167.123;20743.4;8745.16789658877;11998.232103411232
32;170.834;21593.3;8808.903637957997;12784.396362042002
33;174.543;22949.6;8872.428565159405;14077.171434840593
34;178.248;23658.2;8935.738794057923;14722.461205942078
35;181.954;23475.6;8998.830581290185;14476.769418709813
36;185.657;22210.9;9061.700330717438;13149.199669282563
37;189.36;20319.6;9124.344590968614;11195.255409031384
38;193.059;18844.1;9186.760042164635;9657.339957835364
39;196.759;17947.1;9248.943476378972;8698.156523621026
40;200.458;17931.3;9310.891782258495;8620.408217741504
41;204.153;18432.1;9372.601935431627;9059.498064568372
42;207.849;18886.6;9434.070997730872;9452.529002269126
43;211.541;18929.3;9495.296121583715;9434.003878416284
44;215.234;18579.7;9556.274553942929;9023.425446057072
45;218.923;17900.9;9617.003636101317;8283.896363898684
46;222.613;17097.7;9677.480799585936;7420.219200414065
47;226.299;16640.2;9737.703558762792;6902.496441237208
48;229.986;16436.9;9797.669502200084;6639.230497799917
49;233.67;16305.1;9857.37628749097;6447.7237125090305
50;237.354;16231.6;9916.821638620906;6314.778361379094
51;241.034;16119.1;9976.003344052579;6143.096655947422
52;244.715;16121.6;10034.919255396453;6086.680744603547
53;248.393;16122.6;10093.567285693955;6029.032714306046
54;252.069;16040.4;10151.945408853313;5888.454591146687
55;255.746;16153.0;10210.051659073079;5942.948340926921
56;259.419;16097.8;10267.884129436346;5829.915870563653
57;263.093;16098.7;10325.440972455695;5773.259027544305
58;266.763;16285.4;10382.72039894286;5902.67960105714
59;270.432;16315.4;10439.720677442157;5875.679322557842
60;274.101;16427.3;10496.4401355247;5930.8598644753
61;277.767;16493.2;10552.877159518393;5940.322840481607
62;281.434;16656.3;10609.030195059739;6047.269804940261
63;285.097;16828.2;10664.897747188454;6163.302252811547
64;288.758;16818.9;10720.478381416942;6098.421618583059
65;292.42;16949.7;10775.770724890624;6173.929275109376
66;296.079;16872.7;10830.773465739137;6041.926534260863
67;299.736;16913.7;10885.485353831398;6028.2146461686025
68;303.394;16700.1;10939.905199455583;5760.194800544416
69;307.048;16615.8;10994.03187318201;5621.7681268179895
70;310.701;16544.3;11047.864303182942;5496.435696817058
71;314.353;16421.9;11101.40147384831;5320.498526151692
72;318.005;16378.3;11154.642424532392;5223.657575467607
73;321.653;16380.9;11207.586247794454;5173.313752205546
74;325.3;16390.2;11260.232088430332;5129.967911569669
75;328.948;16380.0;11312.579142968996;5067.420857031004
76;332.592;16472.0;11364.62665923909;5107.373340760911
77;336.235;16512.0;11416.37393574345;5095.62606425655
78;339.876;16641.4;11467.820322058651;5173.57967794135
79;343.516;16833.1;11518.965218717522;5314.134781282477
80;347.157;17053.0;11569.808077988679;5483.191922011321
81;350.794;17234.4;11620.34840528209;5614.051594717912
82;354.43;17557.2;11670.585760839635;5886.614239160366
83;358.064;17662.8;11720.519761043704;5942.280238956295
84;361.697;17811.0;11770.150081142823;6040.849918857177
85;365.33;17695.9;11819.476455808315;5876.423544191686
86;368.96;17540.8;11868.49868011999;5672.301319880009
87;372.588;17218.4;11917.21660792189;5301.183392078112
88;376.215;16861.9;11965.630149781062;4896.26985021894
89;379.841;16549.7;12013.739269276384;4535.9607307236165
90;383.465;16147.9;12061.543978949428;4086.356021050571
91;387.088;15901.6;12109.044336701365;3792.5556632986354
92;390.711;15769.3;12156.240441296908;3613.059558703091
93;394.331;15542.3;12203.13242942633;3339.167570573669
94;397.949;15538.8;12249.720473910496;3289.079526089503
95;401.566;15446.4;12296.004780961935;3150.395219038064
96;405.182;15439.6;12341.985589683967;3097.614410316033
97;408.796;15413.2;12387.663170683853;3025.536829316148
98;412.409;15340.0;12433.03782554499;2906.9621744550095
99;416.02;15370.3;12478.109886106155;2892.1901138938447
100;419.63;15416.1;12522.879713275728;2893.2202867242722
101;423.239;15312.1;12567.347696883982;2744.752303116018
102;426.846;15243.4;12611.514255693395;2631.8857443066045
103;430.452;15337.7;12655.379835913958;2682.3201640860425
104;434.056;15267.4;12698.944910074511;2568.455089925488
105;437.659;15241.8;12742.209977527094;2499.590022472905
106;441.26;15365.4;12785.175563308294;2580.2244366917057
107;444.86;15348.0;12827.842217450583;2520.157782549417
108;448.459;15418.2;12870.210515788673;2547.989484211328
109;452.056;15345.6;12912.281059358844;2433.3189406411566
110;455.652;15359.2;12954.054474677265;2405.145525322736
111;459.246;15364.1;12995.53141259329;2368.5685874067112
112;462.839;15351.3;13036.712548007723;2314.5874519922763
113;466.431;15399.7;13077.598579507046;2322.1014204929543
114;470.021;15357.1;13118.190228823607;2238.9097711763934
115;473.609;15339.9;13158.488240910763;2181.4117590892365
116;477.197;15338.4;13198.49338311096;2139.9066168890404
117;480.781;15481.6;13238.206444580754;2243.3935554192467
118;484.365;15525.8;13277.628235875756;2248.171764124243
119;487.948;15437.8;13316.759589985502;2121.040410014497
120;491.53;15513.2;13355.601362381232;2157.5986376187684
121;495.11;15542.4;13394.154429744583;2148.245570255416
122;498.689;15576.1;13432.419690333176;2143.6803096668245
123;502.267;15659.9;13470.398063887082;2189.501936112918
124;505.841;15792.1;13508.090491583158;2284.0095084168424
125;509.416;15793.6;13545.49793649328;2248.10206350672
126;512.989;15826.3;13582.621384529406;2243.6786154705933
127;516.561;15847.7;13619.461844084506;2228.2381559154946
128;520.131;15896.2;13656.020345988338;2240.179654011663
129;523.701;15888.0;13692.297943353038;2195.702056646962
130;527.266;15900.1;13728.29571169253;2171.8042883074704
131;530.833;15769.8;13764.014748477754;2005.7852515222457
132;534.398;15761.1;13799.456172897688;1961.6438271023126
133;537.961;15723.3;13834.621124199148;1888.6788758008515
134;541.521;15608.9;13869.51076124538;1739.3892387546202
135;545.082;15614.7;13904.126261786409;1710.5737382135922
136;548.642;15494.2;13938.468820966144;1555.7311790338572
137;552.198;15370.7;13972.539651034225;1398.1603489657755
138;555.754;15312.8;14006.3399797976;1306.4600202023994
139;559.309;15275.7;14039.871049044812;1235.8289509551887
140;562.863;15222.6;14073.134113629;1149.465886371001
141;566.414;15033.6;14106.130440761577;927.4695592384232
142;569.965;14990.7;14138.861309148615;851.8386908513858
143;573.515;15083.9;14171.32800677087;912.5719932291304
144;577.061;14997.1;14203.531830127466;793.5681698725348
145;580.608;15040.4;14235.474084843247;804.925915156753
146;584.153;15058.7;14267.156084478731;791.5439155212698
147;587.695;15151.6;14298.579150643698;853.0208493563023
148;591.238;15129.6;14329.74461286336;799.8553871366403
149;594.778;15124.7;14360.653809193129;764.0461908068719
150;598.318;15164.4;14391.308085686966;773.0919143130341
151;601.856;15330.1;14421.70879603929;908.3912039607112
152;605.392;15291.2;14451.857301675429;839.3426983245718
153;608.928;15345.9;14481.754973104627;864.1450268953722
154;612.46;15388.4;14511.403189229552;876.9968107704481
155;615.993;15576.6;14540.803337594312;1035.796662405688
156;619.523;15615.6;14569.956814512992;1045.643185487008
157;623.053;15624.9;14598.865026657624;1026.0349733423755
158;626.58;15688.7;14627.529391156675;1061.1706088433257
159;630.108;15687.9;14655.951335398957;1031.9486646010428
160;633.632;15778.3;14684.132297384987;1094.1677026150119
161;637.157;15822.6;14712.073725434764;1110.5262745652362
162;640.679;15788.7;14739.777078809953;1048.9229211900474
163;644.201;15822.1;14767.243827877477;1054.8561721225233
164;647.72;15755.2;14794.475453493485;960.7245465065153
165;651.239;15754.7;14821.473447062674;933.2265529373271
166;654.756;15816.2;14848.239309596982;967.9606904030188
167;658.272;15837.7;14874.774551440605;962.9254485593956
168;661.786;16019.3;14901.080692617334;1118.2193073826656
169;665.3;16065.4;14927.159262780197;1138.2407372198031
170;668.81;16041.3;14953.011802764404;1088.2881972355954
171;672.32;16242.7;14978.63986478757;1264.0601352124304
172;675.83;16265.8;15004.045011950178;1261.754988049821
173;679.336;16390.7;15029.228819993303;1361.471180006698
174;682.843;16234.7;15054.192877275558;1180.5071227244425
175;686.347;16438.8;15078.938785770253;1359.861214229746
176;689.85;16545.9;15103.46815925577;1442.4318407442315
177;693.353;16679.4;15127.78262510908;1551.6173748909223
178;696.853;16617.4;15151.883825131466;1465.516174868535
179;700.351;16791.1;15175.773416640379;1615.3265833596197
180;703.85;16884.0;15199.453071608425;1684.5469283915754
181;707.346;16815.1;15222.924478161473;1592.175521838526
182;710.84;16960.8;15246.189341270858;1714.6106587291415
183;714.335;16988.9;15269.249381829666;1719.6506181703353
184;717.827;17161.8;15292.106337877087;1869.6936621229124
185;721.317;17110.2;15314.761964648811;1795.4380353511897
186;724.808;17158.6;15337.21803607745;1821.3819639225494
187;728.296;17230.1;15359.476344049988;1870.6236559500103
188;731.782;17291.7;15381.538698667227;1910.1613013327733
189;735.267;17330.7;15403.406928736204;1927.2930712637972
190;738.753;17349.7;15425.08288216556;1924.6171178344412
191;742.235;17399.3;15446.568426136864;1952.731573863135
192;745.716;17494.4;15467.865447077855;2026.5345529221468
193;749.196;17578.2;15488.975850943585;2089.2241490564156
194;752.674;17625.6;15509.901563954447;2115.6984360455517
195;756.153;17642.8;15530.644533223067;2112.1554667769324
196;759.628;17790.6;15551.206727019047;2239.393272980951
197;763.102;17931.1;15571.590134733524;2359.5098652664747
198;766.575;18242.7;15591.796768151566;2650.903231848435
199;770.047;18531.7;15611.828662653332;2919.871337346669
200;773.517;18839.4;15631.687880128005;3207.712119871996
201;776.988;18958.0;15651.376511663479;3306.6234883365214
202;780.456;18798.7;15670.896680424752;3127.8033195752487
203;783.922;18784.8;15690.250542643053;3094.5494573569467
204;787.387;18756.8;15709.440285827637;3047.359714172362
205;790.85;18798.6;15728.468128433251;3070.1318715667476
206;794.312;18921.0;15747.336319388227;3173.663680611773
207;797.773;18972.6;15766.047138322194;3206.5528616778047
208;801.233;18955.9;15784.602896601411;3171.2971033985905
209;804.691;18975.6;15803.005937657643;3172.5940623423558
210;808.148;19077.4;15821.258636635619;3256.1413633643824
211;811.603;19094.0;15839.363400405997;3254.636599594003
212;815.057;19071.3;15857.322668400815;3213.9773315991843
213;818.51;19173.2;15875.138912598472;3298.061087401529
214;821.964;19030.4;15892.814637117137;3137.5853628828645
215;825.414;19089.8;15910.352379055588;3179.447620944411
216;828.863;19075.2;15927.754706888461;3147.4452931115393
217;832.311;19056.1;15945.024220884861;3111.0757791151373
218;835.755;18919.2;15962.163552788348;2957.0364472116526
219;839.2;19020.7;15979.175365453226;3041.524634546775
220;842.643;18812.6;15996.062351304156;2816.537648695843
221;846.086;18701.6;16012.827233181044;2688.7727668189546
222;849.527;18814.9;16029.47276208916;2785.4272379108406
223;852.966;18743.3;16046.001715921499;2697.2982840785007
224;856.405;18616.1;16062.416900425318;2553.6830995746805
225;859.842;18819.3;16078.721148320863;2740.5788516791363
226;863.278;18676.4;16094.917317865187;2581.4826821348142
227;866.712;18761.1;16111.008294721138;2650.091705278861
228;870.145;18698.4;16126.996990366382;2571.403009633619
229;873.577;18658.2;16142.8863427795;2515.3136572205003
230;877.005;18782.1;16158.679315653095;2623.4206843469037
231;880.434;18746.8;16174.378897832892;2572.421102167107
232;883.862;18900.3;16189.988104398839;2710.3118956011604
233;887.289;18799.4;16205.50997615509;2593.8900238449114
234;890.714;18985.9;16220.947581008893;2764.952418991108
235;894.138;18907.3;16236.304012806408;2670.9959871935916
236;897.558;18976.0;16251.582393043305;2724.4176069566947
237;900.98;19016.6;16266.785869925205;2749.814130074794
238;904.4;19003.1;16281.91761890191;2721.1823810980877
239;907.818;19013.1;16296.980842921344;2716.119157078654
240;911.236;19102.2;16311.978772143246;2790.221227856755
241;914.65;18981.9;16326.914663888538;2654.9853361114638
242;918.065;18991.7;16341.791803380363;2649.9081966196372
243;921.478;18949.8;16356.613502391707;2593.1864976082925
244;924.89;18786.9;16371.383099194622;2415.51690080538
245;928.299;18764.4;16386.103957993022;2378.2960420069794
246;931.708;18621.6;16400.77946714598;2220.820532854017
247;935.117;18579.4;16415.413038795527;2163.986961204475
248;938.522;18449.7;16430.008107291877;2019.6918927081242
249;941.927;18373.7;16444.568128625124;1929.131871374877
250;945.332;18262.2;16459.09657898226;1803.1034210177422
251;948.735;18160.9;16473.596953841577;1687.303046158424
252;952.134;18165.9;16488.072766712397;1677.827233287604
253;955.535;18178.3;16502.52754797707;1675.7724520229276
254;958.932;17947.6;16516.964844796217;1430.6351552037813
255;962.33;18001.3;16531.38822108817;1469.9117789118282
256;965.726;17923.4;16545.801255077622;1377.5987449223794
257;969.12;17750.8;16560.207539688367;1190.5924603116327
258;972.514;17703.7;16574.61068162017;1129.089318379829
259;975.906;17606.3;16589.014299478717;1017.2857005212827
260;979.296;17613.6;16603.42202316055;1010.1779768394481
261;982.686;17503.1;16617.837492735085;885.2625072649134
262;986.073;17435.7;16632.2643583735;803.4356416265
263;989.46;17333.2;16646.706279099588;686.4937209004129
264;992.845;17284.1;16661.166921971486;622.9330780285127
265;996.23;17261.6;16675.649960912266;585.9500390877329
266;999.611;17257.6;16690.159076074327;567.4409239256711
267;1002.99;17187.7;16704.697953469567;483.0020465304333
268;1006.37;17130.1;16719.27028478428;410.82971521571744
269;1009.75;17078.8;16733.879766534777;344.9202334652218
270;1013.13;17134.9;16748.53009934567;386.369900654332
271;1016.51;17144.3;16763.22498729077;381.07501270922876
272;1019.88;17072.4;16777.968138307584;294.43186169241744
273;1023.26;17122.6;16792.763264144352;329.8367358556461
274;1026.63;17200.3;16807.614079493625;392.6859205063738
275;1030.0;17197.2;16822.524302346326;374.67569765367443
276;1033.37;17128.2;16837.497654620234;290.7023453797665
277;1036.74;17154.3;16852.537861979876;301.76213802012353
278;1040.1;17188.6;16867.64865299679;320.95134700320705
279;1043.47;17163.7;16882.83375926014;280.8662407398624
280;1046.83;17181.0;16898.096915568574;282.90308443142567
281;1050.2;17256.3;16913.441859529423;342.8581404705765
282;1053.56;17263.8;16928.87233157903;334.927668420969
283;1056.92;17196.1;16944.392075582316;251.70792441768208
284;1060.28;17146.0;16960.004838753463;185.99516124653746
285;1063.64;17130.4;16975.714370823716;154.68562917628515
286;1066.99;17181.0;16991.524423384286;189.4755766157141
287;1070.35;17150.9;17007.43874957322;143.4612504267825
288;1073.7;17064.3;17023.4611044233;40.83889557670045
289;1077.06;17088.8;17039.59524440191;49.20475559808983
290;1080.41;17099.3;17055.844926384827;43.455073615172296
291;1083.76;17066.8;17072.213907739868;-5.413907739868591
292;1087.11;17084.2;17088.705946269387;-4.505946269386186
293;1090.46;17070.0;17105.324745690803;-35.324745690802956
294;1093.8;17048.0;17122.073964707142;-74.0739647071423
295;1097.15;17064.1;17138.95690912722;-74.85690912722202
296;1100.49;17144.1;17155.976144760964;-11.876144760964962
297;1103.83;17299.7;17173.133489597785;126.5665104022155
298;1107.17;17178.2;17190.430642984422;-12.230642984421138
299;1110.51;17284.1;17207.869305533262;76.23069446673617
300;1113.85;17271.8;17225.45105567259;46.34894432740839
301;1117.19;17225.4;17243.177472592986;-17.77747259298485
302;1120.53;17385.0;17261.050135948502;123.94986405149757
303;1123.86;17456.3;17279.07044779626;177.22955220373842
304;1127.2;17375.7;17297.23981143287;78.46018856712908
305;1130.53;17455.4;17315.55963192724;139.8403680727606
306;1133.86;17497.3;17334.031315132863;163.26868486713647
307;1137.19;17586.0;17352.656268301635;233.34373169836545
308;1140.52;17653.8;17371.43590031812;282.36409968187945
309;1143.85;17589.7;17390.37162240031;199.3283775996897
310;1147.17;17674.2;17409.46484858984;264.73515141016105
311;1150.5;17648.7;17428.716994921608;219.98300507839303
312;1153.82;17616.8;17448.129480077863;168.670519922136
313;1157.14;17600.8;17467.70372494068;133.09627505932076
314;1160.46;17700.6;17487.441152078834;213.15884792116412
315;1163.78;17677.8;17507.343185392067;170.45681460793276
316;1167.1;17630.0;17527.4112509117;102.58874908829966
317;1170.42;17635.3;17547.646776373633;87.65322362636653
318;1173.73;17658.0;17568.051190539638;89.9488094603621
319;1177.05;17585.4;17588.62592304801;-3.2259230480085535
320;1180.36;17587.8;17609.37240443657;-21.57240443657065
321;1183.67;17603.0;17630.292033016176;-27.292033016175992
322;1186.98;17648.3;17651.385991589385;-3.0859915893852303
323;1190.29;17676.4;17672.655190311354;3.744809688647365
324;1193.6;17595.7;17694.100508508185;-98.40050850818443
325;1196.91;17557.2;17715.722825543424;-158.5228255434231
326;1200.21;17636.9;17737.522037759532;-100.62203775953094
327;1203.52;17816.2;17759.49645785596;56.70354214404142
328;1206.82;17805.1;17781.643393317987;23.456606682011625
329;1210.13;17783.2;17803.960152197935;-20.760152197934076
330;1213.43;17833.7;17826.444042782678;7.255957217323157
331;1216.73;17901.7;17849.092165965176;52.60783403482492
332;1220.02;18078.0;17871.901622710942;206.09837728905768
333;1223.32;18105.3;17894.869514511574;210.4304854884249
334;1226.62;18173.7;17917.992944919635;255.70705508036554
335;1229.91;18280.1;17941.269019592;338.83098040799814
336;1233.2;18354.1;17964.694846742594;389.4051532574049
337;1236.5;18431.9;17988.267537973643;443.63246202635855
338;1239.79;18520.1;18011.984208781418;508.11579121858085
339;1243.07;18671.9;18035.841979098517;636.0580209014843
340;1246.36;18740.9;18059.837973938684;681.0620260613177
341;1249.65;18718.4;18083.96932467624;634.4306753237615
342;1252.94;18904.8;18108.233169496107;796.5668305038926
343;1256.22;19072.3;18132.626652927516;939.673347072483
344;1259.5;19150.7;18157.146927465343;993.553072534658
345;1262.79;19239.7;18181.791155001185;1057.9088449988158
346;1266.07;19325.8;18206.556507362162;1119.2434926378373
347;1269.35;19318.1;18231.44016695449;1086.659833045509
348;1272.62;19601.9;18256.439327376815;1345.4606726231868
349;1275.9;19637.8;18281.551193094365;1356.2488069056344
350;1279.18;19671.9;18306.772982026974;1365.1270179730273
351;1282.45;19723.9;18332.101925656953;1391.798074343049
352;1285.72;19848.4;18357.53526911788;1490.86473088212
353;1289.0;19868.1;18383.070271461325;1485.0297285386732
354;1292.27;19884.2;18408.70420664748;1475.495793352522
355;1295.54;20100.8;18434.434363486813;1666.3656365131865
356;1298.81;20119.3;18460.25804554476;1659.0419544552387
357;1302.07;20265.7;18486.172573050393;1779.5274269496076
358;1305.34;20373.8;18512.17528282319;1861.6247171768082
359;1308.6;20491.1;18538.263529477917;1952.836470522081
360;1311.87;20642.1;18564.43468624557;2077.665313754427
361;1315.13;20779.8;18590.68614588551;2189.11385411449
362;1318.39;20951.6;18617.015321933737;2334.5846780662614
363;1321.65;21187.2;18643.41964981739;2543.7803501826093
364;1324.91;21330.9;18669.896588309453;2661.003411690548
365;1328.16;21572.9;18696.443621620696;2876.4563783793055
366;1331.42;21914.1;18723.058260571925;3191.041739428074
367;1334.67;22063.6;18749.738044748494;3313.8619552515047
368;1337.93;22322.9;18776.48054564617;3546.4194543538324
369;1341.18;22495.0;18803.283367899316;3691.7166321006844
370;1344.43;22702.8;18830.144151606484;3872.655848393515
371;1347.68;22878.1;18857.060573783376;4021.039426216623
372;1350.93;22924.9;18884.030350172234;4040.8696498277677
373;1354.18;23027.8;18911.051236725703;4116.748763274296
374;1357.42;23082.1;18938.121029805097;4143.978970194901
375;1360.67;22864.9;18965.237566939202;3899.6624330607992
376;1363.91;22711.6;18992.39872709658;3719.2012729034177
377;1367.15;22737.8;19019.602428242415;3718.1975717575842
378;1370.39;22459.6;19046.846625533883;3412.753374466116
379;1373.63;22434.3;19074.129311310135;3360.1706886898646
380;1376.87;22283.4;19101.448512037834;3181.9514879621674
381;1380.11;22099.9;19128.802287785333;2971.0977122146687
382;1383.35;21970.8;19156.1887304405;2814.6112695595
383;1386.58;21851.2;19183.605961602178;2667.594038397823
384;1389.81;21722.3;19211.052131015324;2511.2478689846757
385;1393.05;21498.1;19238.52541510082;2259.574584899179
386;1396.28;21528.3;19266.024015392028;2262.2759846079716
387;1399.51;21424.1;19293.546156018056;2130.553843981943
388;1402.74;21488.8;19321.090083730756;2167.709916269243
389;1405.97;21351.4;19348.65406658753;2002.7459334124724
390;1409.19;21321.7;19376.23639432286;1945.4636056771415
391;1412.42;21303.4;19403.835376698677;1899.564623301325
392;1415.64;21272.7;19431.449342931548;1841.2506570684527
393;1418.86;21086.1;19459.07664123368;1627.023358766317
394;1422.09;21184.6;19486.715638229773;1697.884361770226
395;1425.31;21253.8;19514.364716814736;1739.435283185263
396;1428.53;21149.6;19542.02227686232;1607.5777231376778
397;1431.74;21079.4;19569.68673564062;1509.7132643593832
398;1434.96;21126.9;19597.35652649347;1529.5434735065319
399;1438.18;21142.8;19625.03009786185;1517.7699021381486
400;1441.39;21015.3;19652.705913482154;1362.5940865178454
401;1444.6;20997.1;19680.38245226845;1316.7175477315468
402;1447.82;21168.2;19708.05820676075;1460.1417932392505
403;1451.03;20983.4;19735.731682666225;1247.668317333777
404;1454.24;21000.6;19763.40140029346;1237.1985997065385
405;1457.44;20877.0;19791.065892427723;1085.9341075722768
406;1460.65;20964.7;19818.723704226268;1145.976295773733
407;1463.86;20943.9;19846.373391705678;1097.5266082943235
408;1467.06;20976.4;19874.013522342284;1102.3864776577175
409;1470.27;20921.3;19901.642674587656;1019.6573254123432
410;1473.47;20872.7;19929.259437917226;943.4405620827747
411;1476.67;20903.0;19956.862412002974;946.1375879970255
412;1479.87;20901.9;19984.450205951292;917.449794048709
413;1483.07;20857.1;20012.02143832992;845.0785616700778
414;1486.26;20861.7;20039.57473688108;822.12526311892
415;1489.46;20910.8;20067.108737797764;843.6912622022355
416;1492.66;21010.8;20094.622085494204;916.1779145057953
417;1495.85;20940.8;20122.113432821534;818.6865671784653
418;1499.04;21110.4;20149.581441792652;960.8185582073493
419;1502.23;21088.3;20177.024782607317;911.275217392682
420;1505.42;21188.7;20204.442135073463;984.2578649265379
421;1508.61;21361.4;20231.832188111763;1129.5678118882388
422;1511.8;21281.4;20259.19364048547;1022.20635951453
423;1514.99;21492.9;20286.525202253506;1206.3747977464955
424;1518.17;21556.4;20313.825593696834;1242.574406303167
425;1521.36;21607.8;20341.093547160177;1266.7064528398223
426;1524.54;21787.9;20368.327807413978;1419.5721925860234
427;1527.72;21904.1;20395.52713189573;1508.5728681042674
428;1530.9;22082.8;20422.69029223866;1660.1097077613376
429;1534.08;22089.1;20449.816075161707;1639.2839248382916
430;1537.26;22224.3;20476.903283984902;1747.396716015097
431;1540.44;22438.1;20503.950738421117;1934.1492615788811
432;1543.61;22597.6;20530.957275657176;2066.6427243428225
433;1546.79;22961.9;20557.92175222139;2403.9782477786102
434;1549.96;23137.4;20584.84304530848;2552.5569546915212
435;1553.14;23424.4;20611.720056152935;2812.679943847066
436;1556.31;23656.3;20638.551711514792;3017.748288485207
437;1559.48;23739.2;20665.336966280873;3073.863033719128
438;1562.65;23843.0;20692.074805515487;3150.9251944845128
439;1565.81;24124.0;20718.764245021557;3405.235754978443
440;1568.98;24302.9;20745.40433211125;3557.49566788875
441;1572.14;24613.2;20771.994148149082;3841.2058518509184
442;1575.31;24837.1;20798.532810074503;4038.5671899254958
443;1578.47;25095.7;20825.019473239;4270.680526761
444;1581.63;25036.0;20851.453333379734;4184.5466666202665
445;1584.79;25242.9;20877.83362894065;4365.066371059351
446;1587.95;25279.3;20904.159640211143;4375.140359788857
447;1591.11;25204.0;20930.43069113127;4273.569308868729
448;1594.27;25073.9;20956.646149392476;4117.253850607525
449;1597.42;24800.3;20982.80542542189;3817.494574578108
450;1600.58;24633.8;21008.907970819182;3624.892029180817
451;1603.73;24399.3;21034.95327535896;3364.34672464104
452;1606.89;24398.7;21060.94086506475;3337.7591349352515
453;1610.04;24135.6;21086.870299603543;3048.729700396456
454;1613.19;23977.8;21112.741172019905;2865.058827980094
455;1616.34;23784.0;21138.553105845687;2645.4468941543128
456;1619.48;23604.7;21164.305753263314;2440.394246736687
457;1622.63;23472.2;21189.998792909675;2282.2012070903256
458;1625.78;23437.0;21215.63192782561;2221.3680721743913
459;1628.92;23194.9;21241.204883873947;1953.695116126055
460;1632.06;23090.0;21266.717409131194;1823.2825908688064
461;1635.2;22967.2;21292.169271210798;1675.0307287892028
462;1638.34;22865.2;21317.56025595903;1547.639744040971
463;1641.48;22751.2;21342.890165972443;1408.3098340275574
464;1644.62;22672.9;21368.15881932399;1304.7411806760101
465;1647.76;22589.8;21393.36604816971;1196.4339518302877
466;1650.9;22626.2;21418.51169771303;1207.6883022869697
467;1654.03;22628.2;21443.595625121736;1184.604374878265
468;1657.16;22635.8;21468.61769964049;1167.182300359509
469;1660.3;22550.1;21493.57780236;1056.522197639999
470;1663.43;22631.8;21518.475826042773;1113.3241739572259
471;1666.56;22568.1;21543.311674016542;1024.7883259834562
472;1669.69;22686.7;21568.085260742253;1118.6147392577477
473;1672.81;22665.3;21592.79651092874;1072.5034890712595
474;1675.94;22726.7;21617.445360470945;1109.2546395290556
475;1679.07;22645.7;21642.031755988854;1003.6682440111472
476;1682.19;22647.8;21666.555655194974;981.2443448050253
477;1685.31;22669.9;21691.01702583848;978.8829741615227
478;1688.44;22651.9;21715.415845480984;936.4841545190175
479;1691.56;22570.2;21739.75210147292;830.4478985270798
480;1694.68;22584.3;21764.02579052955;820.2742094704481
481;1697.79;22523.4;21788.23691767061;735.1630823293926
482;1700.91;22554.6;21812.385496118557;742.2145038814415
483;1704.03;22536.4;21836.471546447476;699.9284535525258
484;1707.14;22418.2;21860.495096653565;557.7049033464355
485;1710.26;22410.4;21884.45618173231;525.9438182676931
486;1713.37;22209.8;21908.354842256234;301.44515774376487
487;1716.48;22266.9;21932.191124057306;334.70887594269516
488;1719.59;22310.6;21955.965075981938;354.6349240180607
489;1722.7;22280.7;21979.676750223614;301.02324977638636
490;1725.81;22206.1;22003.326202522167;202.77379747783198
491;1728.92;22203.4;22026.91349162764;176.48650837235982
492;1732.02;22213.8;22050.438678317812;163.36132168218683
493;1735.13;22256.0;22073.901825135308;182.09817486469183
494;1738.23;22210.7;22097.302996256352;113.39700374364838
495;1741.33;22222.7;22120.64225767815;102.05774232184922
496;1744.43;22267.7;22143.919676531863;123.7803234681378
497;1747.53;22251.2;22167.1353209692;84.06467903080193
498;1750.63;22385.9;22190.289260379664;195.61073962033697
499;1753.73;22375.1;22213.381564993408;161.71843500659088
500;1756.83;22506.7;22236.412306996674;270.28769300332715
501;1759.92;22569.3;22259.381560192876;309.9184398071229
502;1763.02;22645.8;22282.289401088292;363.51059891170735
503;1766.11;22608.0;22305.13590928837;302.86409071163143
504;1769.2;22742.9;22327.92116803364;414.9788319663603
505;1772.29;22818.9;22350.645263593295;468.2547364067068
506;1775.38;22962.0;22373.30828638629;588.691713613709
507;1778.47;23050.0;22395.910331514133;654.0896684858672
508;1781.56;23129.1;22418.451499965213;710.6485000347857
509;1784.65;23284.6;22440.931899268806;843.6681007311927
510;1787.73;23197.3;22463.351644060658;733.9483559393411
511;1790.82;23305.1;22485.710857413185;819.3891425868133
512;1793.9;23277.8;22508.009669738272;769.7903302617269
513;1796.98;23331.0;22530.24821964167;800.7517803583287
514;1800.06;23352.7;22552.42665342704;800.2733465729616
515;1803.14;23469.2;22574.545125405548;894.6548745944528
516;1806.22;23361.9;22596.603797891097;765.2962021089043
517;1809.3;23355.9;22618.60284214413;737.2971578558718
518;1812.37;23291.0;22640.54243707803;650.4575629219689
519;1815.45;23301.1;22662.422768979144;638.6772310208544
520;1818.52;23302.3;22684.244030638383;618.055969361616
521;1821.59;23247.2;22706.006421233444;541.193578766557
522;1824.66;23218.9;22727.710146122565;491.1898538774367
523;1827.74;23239.2;22749.35541607591;489.84458392409215
524;1830.8;23138.9;22770.94244677552;367.95755322448167
525;1833.87;23068.8;22792.471458801858;276.32854119814147
526;1836.94;23114.6;22813.94267641494;300.6573235850592
527;1840.01;22993.6;22835.35632663806;158.24367336193973
528;1843.07;23064.2;22856.712639501075;207.48736049892614
529;1846.13;22944.0;22878.011846616253;65.98815338374698
530;1849.2;23035.8;22899.254181670738;136.54581832926124
531;1852.26;22959.2;22920.439879011552;38.76012098844876
532;1855.32;23039.4;22941.569174351174;97.83082564882716
533;1858.38;22986.2;22962.64230378967;23.557696210329595
534;1861.44;22988.3;22983.65950440539;4.640495594609092
535;1864.49;23093.4;23004.621013512275;88.7789864877268
536;1867.55;23042.0;23025.527068470674;16.47293152932616
537;1870.6;23088.8;23046.3779075287;42.42209247130086
538;1873.66;23169.8;23067.173769099176;102.62623090082343
539;1876.71;23216.7;23087.914892019147;128.78510798085335
540;1879.76;23308.0;23108.601516151906;199.39848384809375
541;1882.81;23342.9;23129.23388264859;213.66611735141123
542;1885.86;23388.3;23149.812234654317;238.48776534568242
543;1888.91;23528.4;23170.33681745084;358.06318254916187
544;1891.96;23653.4;23190.807878704774;462.5921212952271
545;1895.0;23927.6;23211.225669663352;716.3743303366464
546;1898.05;23850.2;23231.590446199723;618.6095538002774
547;1901.09;23981.7;23251.902471350768;729.7975286492328
548;1904.13;23987.4;23272.162014339458;715.2379856605439
549;1907.17;24186.3;23292.36935168674;893.9306483132605
550;1910.21;24225.0;23312.524767065916;912.4752329340845
551;1913.25;24265.3;23332.628553089573;932.6714469104263
552;1916.29;24322.2;23352.68101149505;969.5189885049513
553;1919.33;24439.8;23372.682453346388;1067.1175466536115
554;1922.36;24459.3;23392.633199402786;1066.6668005972133
555;1925.4;24496.0;23412.533581094616;1083.4664189053838
556;1928.43;24446.6;23432.383940518906;1014.2160594810921
557;1931.46;24539.0;23452.18463060734;1086.8153693926615
558;1934.49;24513.8;23471.93601443375;1041.8639855662477
559;1937.52;24526.2;23491.63846594012;1034.5615340598815
560;1940.55;24536.6;23511.29236948705;1025.307630512947
561;1943.58;24522.4;23530.898119780748;991.5018802192535
562;1946.61;24548.6;23550.45612178048;998.1438782195182
563;1949.63;24525.4;23569.966790360544;955.4332096394573
564;1952.66;24444.0;23589.430550376648;854.5694496233518
565;1955.68;24605.8;23608.84783623883;996.9521637611688
566;1958.7;24453.8;23628.219090902818;825.5809090971816
567;1961.73;24491.8;23647.54476729384;844.2552327061603
568;1964.75;24589.3;23666.825326592938;922.4746734070613
569;1967.77;24524.3;23686.061238423685;838.2387615763146
570;1970.78;24396.7;23705.25298163439;691.4470183656122
571;1973.8;24411.0;23724.40104345574;686.5989565442615
572;1976.82;24511.1;23743.505918032894;767.594081967105
573;1979.83;24434.1;23762.56810637698;671.5318936230178
574;1982.84;24371.2;23781.58811717506;589.6118828249419
575;1985.86;24530.9;23800.5664658295;730.3335341705024
576;1988.87;24558.9;23819.503673638792;739.3963263612095
577;1991.88;24549.9;23838.400269204743;711.4997307952581
578;1994.89;24495.9;23857.256788523107;638.6432114768941
579;1997.9;24511.1;23876.073774704615;635.0262252953835
580;2000.9;24676.8;23894.851777246407;781.9482227535918
581;2003.91;24682.0;23913.591351995885;768.4086480041151
582;2006.91;24718.3;23932.293062619927;786.0069373800725
583;2009.92;24707.8;23950.957480469493;756.8425195305063
584;2012.92;24772.9;23969.585184755582;803.3148152444192
585;2015.92;24731.8;23988.176762257615;743.6232377423839
586;2018.92;24927.8;24006.73280778814;921.06719221186
587;2021.92;24961.1;24025.253923595927;935.8460764040719
588;2024.92;25065.4;24043.74072114041;1021.6592788595917
589;2027.92;25072.0;24062.19382123948;1009.8061787605184
590;2030.91;25059.7;24080.613854927626;979.0861450723751
591;2033.91;25232.1;24099.001463337387;1133.0985366626119
592;2036.9;25086.2;24117.357297392155;968.8427026078461
593;2039.89;25237.6;24135.682019346314;1101.917980653685
594;2042.89;25249.7;24153.976301142633;1095.7236988573677
595;2045.88;25215.0;24172.2408257431;1042.7591742568984
596;2048.87;25214.7;24190.47628706693;1024.2237129330715
597;2051.85;25162.2;24208.683389460915;953.5166105390854
598;2054.84;25198.0;24226.862847514083;971.1371524859169
599;2057.83;25033.3;24245.0153853506;788.2846146493976
600;2060.81;25102.9;24263.141736806003;839.7582631939986
601;2063.8;25102.2;24281.242643598645;820.9573564013554
602;2066.78;24990.9;24299.318855844456;691.5811441555452
603;2069.76;25064.2;24317.371131868935;746.828868131066
604;2072.74;24902.4;24335.40023691337;566.999763086631
605;2075.72;24920.2;24353.40694368734;566.7930563126611
606;2078.7;24836.6;24371.39203057041;465.20796942958987
607;2081.68;24876.8;24389.35628161005;487.44371838994994
608;2084.66;24828.6;24407.30048550578;421.2995144942179
609;2087.63;24723.8;24425.22543583155;298.574564168448
610;2090.61;24796.1;24443.1319303743;352.96806962569826
611;2093.58;24711.3;24461.020769906696;250.27923009330334
612;2096.55;24722.2;24478.89275873107;243.30724126892892
613;2099.52;24633.3;24496.748703652553;136.55129634744662
614;2102.49;24726.3;24514.589413909314;211.71058609068496
615;2105.46;24674.1;24532.415700105044;141.68429989495417
616;2108.43;24760.9;24550.228374960534;210.67162503946747
617;2111.4;24828.9;24568.028252613403;260.87174738659814
618;2114.36;24769.4;24585.816149307957;183.5838506920445
619;2117.33;24852.0;24603.592883897203;248.40711610279686
620;2120.29;24905.1;24621.359277069976;283.74072293002246
621;2123.25;24921.2;24639.11615199917;282.0838480008315
622;2126.21;24949.2;24656.864334695067;292.3356653049341
623;2129.17;25028.9;24674.604653988787;354.29534601121486
624;2132.13;25111.4;24692.33794163478;419.06205836521985
625;2135.09;25104.7;24710.065032930463;394.6349670695381
626;2138.05;25366.4;24727.786767363858;638.613232636144
627;2141.01;25358.1;24745.503988369324;612.5960116306742
628;2143.96;25481.1;24763.217545767344;717.8824542326547
629;2146.91;25534.9;24780.92829550436;753.9717044956415
630;2149.87;25711.1;24798.637100705622;912.4628992943763
631;2152.82;25689.7;24816.34483203608;873.3551679639204
632;2155.77;25787.3;24834.05236928529;953.2476307147081
633;2158.72;25888.3;24851.760600976348;1036.5393990236516
634;2161.67;25726.9;24869.470425164793;857.4295748352088
635;2164.62;25933.6;24887.182750271564;1046.4172497284344
636;2167.56;25881.7;24904.898493291872;976.8015067081287
637;2170.51;26099.6;24922.61858168509;1176.9814183149101
638;2173.45;26030.0;24940.343952678588;1089.6560473214122
639;2176.39;26088.6;24958.075555269566;1130.5244447304322
640;2179.34;26212.7;24975.814349351782;1236.8856506482189
641;2182.28;26113.6;24993.56130612421;1120.0386938757874
642;2185.22;26108.6;25011.317409154683;1097.282590845316
643;2188.16;26196.0;25029.083653211394;1166.9163467886065
644;2191.1;26082.1;25046.861044035362;1035.2389559646363
645;2194.03;26211.8;25064.65059903675;1147.149400963248
646;2196.97;26056.3;25082.453345978094;973.8466540219051
647;2199.9;26099.7;25100.27032409341;999.429675906591
648;2202.84;25913.1;25118.102582355175;794.9974176448231
649;2205.77;25924.8;25135.951179730164;788.8488202698354
650;2208.7;25906.7;25153.81718313511;752.8828168648906
651;2211.63;25831.8;25171.70166737521;660.0983326247879
652;2214.56;25869.9;25189.6057147845;680.2942852155029
653;2217.49;25759.2;25207.53041429795;551.6695857020495
654;2220.42;25722.7;25225.476861653504;497.22313834649685
655;2223.34;25683.1;25243.446158105788;439.6538418942109
656;2226.27;25650.8;25261.43940988164;389.36059011835823
657;2229.19;25617.9;25279.45772760443;338.4422723955722
658;2232.12;25503.0;25297.50222579111;205.4977742088886
659;2235.04;25461.9;25315.57402234307;146.32597765693208
660;2237.96;25480.6;25333.674237216634;146.92576278336492
661;2240.88;25481.6;25351.80399183137;129.79600816862876
662;2243.8;25415.7;25369.964409076092;45.7355909239086
663;2246.72;25493.0;25388.15661313758;104.84338686241972
664;2249.64;25341.2;25406.38172865995;-65.18172865995075
665;2252.55;25403.8;25424.640881335734;-20.840881335734593
666;2255.47;25374.7;25442.934545692005;-68.23454569200476
667;2258.38;25511.3;25461.262988055434;50.037011944565165
668;2261.29;25517.8;25479.62579308959;38.17420691040752
669;2264.2;25441.4;25498.022545958425;-56.62254595842387
670;2267.11;25549.2;25516.452832207597;32.74716779240407
671;2270.02;25672.0;25534.915671723564;137.08432827643628
672;2272.93;25642.8;25553.410084720235;89.38991527976395
673;2275.84;25700.7;25571.935092782347;128.76490721765367
674;2278.75;25749.0;25590.48971838851;158.5102816114886
675;2281.65;25862.1;25609.07298530498;253.027014695017
676;2284.56;25891.7;25627.68391888311;264.01608111688984
677;2287.46;25928.4;25646.321547004507;282.07845299549444
678;2290.36;25964.9;25664.984900190917;299.9150998090845
679;2293.26;26091.0;25683.67301178486;407.32698821513986
680;2296.16;26235.1;25702.384918128002;532.7150818719965
681;2299.06;26242.3;25721.11965963526;521.1803403647391
682;2301.96;26330.8;25739.8762820487;590.9237179513002
683;2304.86;26415.0;25758.653836322173;656.3461636778266
684;2307.75;26347.9;25777.451379318773;570.4486206812289
685;2310.65;26507.7;25796.26797446504;711.4320255349594
686;2313.54;26686.6;25815.102690892;871.4973091079992
687;2316.44;26724.4;25833.954604844974;890.4453951550277
688;2319.33;26864.7;25852.822801284266;1011.8771987157343
689;2322.22;27356.6;25871.706374074616;1484.8936259253824
690;2325.11;27833.3;25890.604427199523;1942.695572800476
691;2328.0;27767.2;25909.516079491415;1857.6839205085853
692;2330.89;27685.9;25928.440469209658;1757.4595307903437
693;2333.77;27380.4;25947.376753190438;1433.0232468095637
694;2336.66;27134.2;25966.324105844535;1167.875894155466
695;2339.54;27126.3;25985.28171591296;1141.0182840870402
696;2342.43;27083.0;26004.248783815434;1078.7512161845661
697;2345.31;27123.3;26023.22452138187;1100.0754786181278
698;2348.19;27186.0;26042.20815122969;1143.79184877031
699;2351.07;27142.0;26061.198906977042;1080.8010930229575
700;2353.95;27165.2;26080.19603367999;1085.0039663200114
701;2356.83;27227.9;26099.198787202604;1128.7012127973976
702;2359.71;27211.1;26118.206434258995;1092.8935657410038
703;2362.58;27161.6;26137.218252850274;1024.381747149724
704;2365.46;27236.4;26156.23353190647;1080.1664680935319
705;2368.33;27268.3;26175.251570601347;1093.048429398652
706;2371.21;27321.3;26194.27167891035;1127.0283210896487
707;2374.08;27209.4;26213.29317773941;996.10682226059
708;2376.95;27273.6;26232.315399264735;1041.2846007352637
709;2379.82;27124.6;26251.33768562359;873.2623143764104
710;2382.69;27249.8;26270.359389366073;979.4406106339266
711;2385.56;27143.0;26289.379871774912;853.6201282250877
712;2388.43;27213.2;26308.398503927212;904.8014960727887
713;2391.29;27096.2;26327.414665436267;768.7853345637341
714;2394.16;27254.4;26346.427744963377;907.9722550366241
715;2397.02;27220.4;26365.437138857687;854.9628611423141
716;2399.88;27217.9;26384.442252548066;833.4577474519356
717;2402.75;27146.1;26403.442500013007;742.6574999869918
718;2405.61;27110.9;26422.437303565577;688.4626964344243
719;2408.47;27048.7;26441.426092945414;607.2739070545867
720;2411.33;27043.6;26460.40830477677;583.1916952232277
721;2414.19;26943.2;26479.38338175662;463.8166182433815
722;2417.04;27065.1;26498.350772413847;566.7492275861514
723;2419.9;27007.8;26517.309929915486;490.4900700845137
724;2422.75;27008.8;26536.26031309604;472.5396869039578
725;2425.61;26980.6;26555.201385694912;425.3986143050861
726;2428.46;26885.3;26574.132616176852;311.16738382314725
727;2431.31;26956.7;26593.05347726062;363.6465227393819
728;2434.16;26944.1;26611.963444776633;332.1365552233656
729;2437.01;26973.8;26630.861998191776;342.9380018082229
730;2439.86;26903.1;26649.748620294296;253.35137970570213
731;2442.71;26954.3;26668.6227973018;285.67720269819984
732;2445.56;26903.2;26687.484017965384;215.7159820346169
733;2448.4;26972.9;26706.331773892896;266.56822610710515
734;2451.25;26954.0;26725.165558849345;228.83444115065504
735;2454.09;27026.2;26743.984869265405;282.21513073459573
736;2456.93;26839.3;26762.78920386008;76.51079613991897
737;2459.78;26777.3;26781.578064174537;-4.278064174537576
738;2462.62;26941.8;26800.350952515033;141.4490474849663
739;2465.46;26831.7;26819.107328449965;12.592671550035448
740;2468.3;26902.7;26837.84665296221;64.85334703779154
741;2471.13;27007.9;26856.568387160558;151.33161283944355
742;2473.97;26965.6;26875.271992802318;90.32800719768056
743;2476.81;27091.4;26893.956933158093;197.44306684190815
744;2479.64;27179.7;26912.622672401772;267.0773275982283
745;2482.47;27190.2;26931.268676681644;258.9313233183566
746;2485.31;27173.7;26949.894414816757;223.80558518324324
747;2488.14;27221.8;26968.49935821545;253.30064178454995
748;2490.97;27374.4;26987.08298052411;387.3170194758932
749;2493.8;27273.9;27005.644757922117;268.25524207788476
750;2496.63;27428.0;27024.18417046202;403.8158295379799
751;2499.46;27433.4;27042.7007008789;390.6992991211009
752;2502.28;27532.1;27061.19383594598;470.90616405402034
753;2505.11;27427.7;27079.663066343448;348.0369336565527
754;2507.93;27609.7;27098.107887460556;511.5921125394452
755;2510.76;27805.6;27116.527798166884;689.0722018331144
756;2513.58;27738.3;27134.922302447918;603.3776975520814
757;2516.4;27682.9;27153.290911179847;529.6090888201543
758;2519.22;27901.1;27171.633141272625;729.4668587273736
759;2522.04;27937.7;27189.948514932294;747.7514850677071
760;2524.86;28105.3;27208.23656165955;897.0634383404504
761;2527.68;28035.2;27226.496818432584;808.7031815674163
762;2530.5;28138.6;27244.728831200195;893.8711687998039
763;2533.31;28284.1;27262.932153998183;1021.1678460018156
764;2536.13;28224.8;27281.10634980105;943.6936501989476
765;2538.94;28421.6;27299.250991794994;1122.3490082050048
766;2541.75;28414.4;27317.365662603126;1097.0343373968753
767;2544.57;28433.7;27335.44995607203;1098.250043927972
768;2547.38;28480.9;27353.503477018603;1127.3965229813984
769;2550.19;28395.4;27371.52584124222;1023.8741587577824
770;2553.0;28485.1;27389.516675816212;1095.5833241837863
771;2555.8;28553.3;27407.475618052646;1145.8243819473537
772;2558.61;28600.0;27425.402316219384;1174.5976837806156
773;2561.41;28554.1;27443.29643004251;1110.8035699574903
774;2564.22;28633.1;27461.157630994054;1171.9423690059448
775;2567.02;28710.0;27478.985601654065;1231.0143983459348
776;2569.83;28642.2;27496.780036322;1145.4199636779995
777;2572.63;28574.9;27514.54064160745;1060.3593583925503
778;2575.43;28578.7;27532.26713557419;1046.4328644258094
779;2578.23;28576.0;27549.959246889597;1026.0407531104029
780;2581.03;28452.3;27567.616714685348;884.6832853146516
781;2583.83;28512.2;27585.239288353503;926.9607116464977
782;2586.62;28420.9;27602.826726132935;818.0732738670667
783;2589.42;28516.7;27620.378795532113;896.3212044678876
784;2592.22;28401.2;27637.895272240232;763.3047277597689
785;2595.01;28394.0;27655.375940909682;738.624059090318
786;2597.8;28295.6;27672.820593825898;622.7794061741006
787;2600.59;28338.1;27690.22903066054;647.8709693394594
788;2603.39;28269.0;27707.601057313048;561.3989426869521
789;2606.18;28106.3;27724.936486161558;381.3635138384416
790;2608.97;28142.2;27742.23513519819;399.9648648018119
791;2611.75;28102.3;27759.49682622869;342.80317377130996
792;2614.54;28160.8;27776.72138505843;384.07861494156896
793;2617.33;28117.2;27793.9086409208;323.29135907920136
794;2620.11;28168.7;27811.058426889973;357.6415731100278
795;2622.9;28113.8;27828.170579273035;285.6294207269639
796;2625.68;28128.0;27845.244937953477;282.75506204652265
797;2628.46;28216.4;27862.28134567106;354.11865432894047
798;2631.24;28154.7;27879.279647993088;275.42035200691316
799;2634.02;28168.2;27896.239694028023;271.9603059719775
800;2636.8;28262.7;27913.161335638553;349.53866436144745
801;2639.58;28141.6;27930.044427406938;211.5555725930608
802;2642.36;28351.4;27946.88882741079;404.51117258921295
803;2645.13;28438.3;27963.694395843257;474.60560415674263
804;2647.91;28495.4;27980.460996942602;514.9390030573995
805;2650.68;28654.3;27997.18849969313;657.1115003068699
806;2653.46;28669.1;28013.87677822852;655.2232217714773
807;2656.23;28841.1;28030.525713253573;810.5742867464251
808;2659.0;28806.7;28047.135192025293;759.564807974708
809;2661.77;28896.6;28063.705109906416;832.894890093583
810;2664.54;29082.4;28080.235369855323;1002.1646301446781
811;2667.31;29232.4;28096.725883159335;1135.674116840666
812;2670.08;29222.7;28113.176571127395;1109.523428872606
813;2672.84;29445.0;28129.58736642516;1315.4126335748406
814;2675.61;29720.2;28145.958212813526;1574.2417871864745
815;2678.38;29569.6;28162.28906720751;1407.3109327924903
816;2681.14;29754.8;28178.579902264533;1576.220097735466
817;2683.9;29750.8;28194.83070471513;1555.969295284871
818;2686.66;29894.6;28211.04147705203;1683.5585229479693
819;2689.42;30117.3;28227.21223732765;1890.0877626723486
820;2692.18;30256.6;28243.343020429984;2013.2569795700147
821;2694.94;30246.9;28259.43388014788;1987.4661198521208
822;2697.7;30153.6;28275.48489040275;1878.115109597249
823;2700.46;30291.0;28291.49614499063;1999.5038550093705
824;2703.21;30332.4;28307.46775648869;2024.93224351131
825;2705.97;30435.2;28323.399857469132;2111.8001425308685
826;2708.72;30501.9;28339.292600753455;2162.6073992465463
827;2711.48;30405.3;28355.146160281132;2050.153839718867
828;2714.23;30419.3;28370.960731617684;2048.339268382315
829;2716.98;30281.1;28386.736530830152;1894.3634691698462
830;2719.73;30179.6;28402.473794468962;1777.1262055310362
831;2722.48;30195.3;28418.172778028176;1777.127221971823
832;2725.23;30088.6;28433.833754773095;1654.7662452269033
833;2727.98;30081.9;28449.4570157403;1632.442984259702
834;2730.72;29963.7;28465.04286851403;1498.657131485972
835;2733.47;29870.8;28480.591637002926;1390.208362997073
836;2736.21;29853.2;28496.103660102188;1357.0963398978129
837;2738.96;29738.6;28511.579290609094;1227.0207093909048
838;2741.7;29604.9;28527.018894891873;1077.8811051081284
839;2744.44;29588.7;28542.422851588944;1046.2771484110563
840;2747.18;29473.0;28557.7915501175;915.2084498824988
841;2749.92;29476.4;28573.125390357494;903.2746096425071
842;2752.66;29293.7;28588.424781340957;705.2752186590442
843;2755.4;29281.6;28603.69014113266;677.9098588673369
844;2758.13;29260.2;28618.92189485012;641.2781051498823
845;2760.87;29201.3;28634.120474389925;567.179525610074
846;2763.6;29158.9;28649.286318061426;509.6136819385756
847;2766.34;29094.0;28664.419869845726;429.58013015427423
848;2769.07;29061.3;28679.521578820033;381.77842117996624
849;2771.8;28977.8;28694.591898357332;283.2081016426673
850;2774.53;28940.9;28709.631285648396;231.268714351605
851;2777.26;28985.3;28724.640200716047;260.65979928395245
852;2779.99;28934.3;28739.61910589577;194.68089410422908
853;2782.72;28980.7;28754.56846612966;226.13153387034254
854;2785.45;29148.2;28769.488748306576;378.71125169342486
855;2788.18;29077.1;28784.3804215767;292.7195784232972
856;2790.9;29224.8;28799.243958877327;425.55604112267247
857;2793.63;29155.0;28814.079836072917;340.9201639270832
858;2796.35;29142.3;28828.888533283483;313.41146671651586
859;2799.07;29255.4;28843.670534038225;411.72946596177644
860;2801.79;29398.9;28858.426325000426;540.4736749995755
861;2804.51;29378.4;28873.15639695064;505.2436030493627
862;2807.23;29489.4;28887.861246074157;601.5387539258445
863;2809.95;29615.7;28902.541373608692;713.1586263913086
864;2812.67;29742.0;28917.197286807317;824.8027131926829
865;2815.39;29782.3;28931.829500054664;850.4704999453352
866;2818.1;29780.4;28946.43853598338;833.9614640166219
867;2820.82;30041.6;28961.024925730817;1080.5750742691816
868;2823.53;29908.2;28975.589208773927;932.6107912260741
869;2826.25;30107.0;28990.13193539541;1116.8680646045905
870;2828.96;29932.0;29004.653665204034;927.346334795966
871;2831.67;30194.7;29019.154968977222;1175.5450310227789
872;2834.38;30270.2;29033.63642676584;1236.5635732341616
873;2837.09;30209.0;29048.098630376204;1160.9013696237962
874;2839.8;30398.7;29062.54218398027;1336.1578160197314
875;2842.5;30366.2;29076.967703359012;1289.2322966409884
876;2845.21;30437.0;29091.37581765496;1345.62418234504
877;2847.92;30425.6;29105.76716890295;1319.83283109705
878;2850.62;30329.8;29120.14241259406;1209.657587405938
879;2853.33;30444.8;29134.502217417696;1310.2977825823036
880;2856.03;30485.2;29148.847264159824;1336.352735840177
881;2858.73;30363.6;29163.178246709373;1200.421753290626
882;2861.43;30270.4;29177.495872318752;1092.9041276812495
883;2864.13;30355.6;29191.80086024459;1163.799139755407
884;2866.83;30328.0;29206.093940672537;1121.9060593274626
885;2869.53;30163.4;29220.375855426228;943.0241445737738
886;2872.23;30195.3;29234.64735754834;960.6526424516596
887;2874.92;30002.4;29248.90920951178;753.4907904882202
888;2877.62;29964.9;29263.16218339595;701.7378166040507
889;2880.31;29931.9;29277.407058815174;654.4929411848279
890;2883.01;29918.9;29291.644622401116;627.2553775988854
891;2885.7;29925.9;29305.8756673304;620.0243326696
892;2888.39;29922.4;29320.10099305217;602.2990069478328
893;2891.08;29781.9;29334.321405215793;447.5785947842087
894;2893.77;29570.8;29348.53771549364;222.26228450635972
895;2896.46;29570.4;29362.75074003384;207.64925996616148
896;2899.15;29629.4;29376.96129720714;252.43870279286057
897;2901.83;29523.0;29391.170207460753;131.82979253924714
898;2904.52;29530.3;29405.378293766247;124.92170623375205
899;2907.21;29482.7;29419.586380413486;63.11361958651469
900;2909.89;29471.7;29433.795292941526;37.90470705847474
901;2912.57;29515.4;29448.005857520555;67.3941424794466
902;2915.26;29452.3;29462.218900699798;-9.918900699798542
903;2917.94;29536.8;29476.435249702394;60.3647502976055
904;2920.62;29392.9;29490.655632661674;-97.75563266167228
905;2923.3;29585.7;29504.880778314615;80.81922168538586
906;2925.98;29609.3;29519.110438819425;90.18956118057395
907;2928.65;29724.6;29533.34436714251;191.25563285749013
908;2931.33;29619.8;29547.58231715213;72.21768284786958
909;2934.01;29814.7;29561.82404462909;252.87595537090965
910;2936.68;29817.2;29576.069306076373;241.1306939236274
911;2939.35;29958.7;29590.317860525698;368.3821394743027
912;2942.03;30031.8;29604.569469420094;427.23053057990546
913;2944.7;30156.4;29618.823897886414;537.5761021135877
914;2947.37;30141.7;29633.08091532378;508.619084676222
915;2950.04;30323.6;29647.34029650709;676.2597034929095
916;2952.71;30541.8;29661.60182129742;880.1981787025798
917;2955.38;30640.0;29675.865276318433;964.1347236815673
918;2958.05;30608.0;29690.130456995754;917.8695430042462
919;2960.71;30693.2;29704.397168396365;988.8028316036362
920;2963.38;30807.0;29718.665224765937;1088.3347752340633
921;2966.04;30873.0;29732.934450238106;1140.0655497618936
922;2968.71;30782.4;29747.204679829847;1035.1953201701544
923;2971.37;31071.3;29761.475759958765;1309.8242400412346
924;2974.03;31037.1;29775.747547394418;1261.3524526055808
925;2976.69;31127.4;29790.019912004584;1337.3800879954179
926;2979.35;31191.6;29804.292736270552;1387.3072637294463
927;2982.01;31203.8;29818.56591604742;1385.2340839525787
928;2984.67;31108.6;29832.83936106332;1275.7606389366774
929;2987.33;31223.4;29847.112994898715;1376.287005101287
930;2989.99;31058.2;29861.386753891657;1196.8132461083442
931;2992.64;31153.4;29875.66058814306;1277.7394118569428
932;2995.3;31187.9;29889.93445972197;1297.96554027803
933;2997.95;31121.6;29904.208343474795;1217.3916565252039
