#Acq. time (s)=	60
#Accumulations=	10
#Range (cm-¹)=	50...3000
#Windows=	1
#Auto scanning=	Off
#Autofocus=	Off
#AutoExposure=	Off
#Spike filter=	Multiple accum.
#Delay time (s)=	0
#Binning=	1
#Readout mode=	Signal
#DeNoise=	Off
#ICS correction=	Off
#Dark correction=	Off
#Inst. Process=	Off
#Detector Gain=	High Sensitivity
#Detector ADC=	1 MHz Ultra 
#Detector temperature (°C)=	-70.2
#Instrument=	LabRAM HR Evol
#Detector=	Synapse
#Objective=	x100
#Grating=	300gr_mm
#ND Filter=	50%
#Laser (nm)=	532
#Slit=	100.021
#Hole=	1000.03
#AFM=	Off
#Collection=	Microscope
#StageXY=	Marzhauser
#StageZ=	Marzhauser
#X (µm)=	0
#Y (µm)=	0
#Z (µm)=	34.5
#Full time(mm:ss)=	10:02
#Project=	NiSi_900Â°C
#Sample=	1
#Site=	
#Title=	Green_50%_100x_60sx10
#Remark=	
#Date=	10.03.2026 10:08
#Acquired=	10.03.2026 10:08:04
#AxisType[0]=Intens
#AxisUnit[0]=Cnt
#AxisType[1]=Spectr
#AxisUnit[1]=1/cm
51.3771	6280.44
55.1338	6280.44
58.889	7099.78
62.6428	8402.89
66.395	9423.56
70.1436	10901.4
73.8928	13114.2
77.6406	15178.7
81.3868	18757.3
85.1315	24054.8
88.8748	32400.2
92.6144	40493.7
96.3546	43546.9
100.093	42447.3
103.831	34874.9
107.564	27001.6
111.298	23166.2
115.031	21783.1
118.763	21237.6
122.49	21606.3
126.218	23027.4
129.945	26524
133.668	30730.9
137.392	32646.8
141.115	33257.6
144.833	30432.6
148.553	26334.3
152.271	23414.6
155.985	21660.9
159.7	20524
163.413	20378
167.123	20743.4
170.834	21593.3
174.543	22949.6
178.248	23658.2
181.954	23475.6
185.657	22210.9
189.36	20319.6
193.059	18844.1
196.759	17947.1
200.458	17931.3
204.153	18432.1
207.849	18886.6
211.541	18929.3
215.234	18579.7
218.923	17900.9
222.613	17097.7
226.299	16640.2
229.986	16436.9
233.67	16305.1
237.354	16231.6
241.034	16119.1
244.715	16121.6
248.393	16122.6
252.069	16040.4
255.746	16153
259.419	16097.8
263.093	16098.7
266.763	16285.4
270.432	16315.4
274.101	16427.3
277.767	16493.2
281.434	16656.3
285.097	16828.2
288.758	16818.9
292.42	16949.7
296.079	16872.7
299.736	16913.7
303.394	16700.1
307.048	16615.8
310.701	16544.3
314.353	16421.9
318.005	16378.3
321.653	16380.9
325.3	16390.2
328.948	16380
332.592	16472
336.235	16512
339.876	16641.4
343.516	16833.1
347.157	17053
350.794	17234.4
354.43	17557.2
358.064	17662.8
361.697	17811
365.33	17695.9
368.96	17540.8
372.588	17218.4
376.215	16861.9
379.841	16549.7
383.465	16147.9
387.088	15901.6
390.711	15769.3
394.331	15542.3
397.949	15538.8
401.566	15446.4
405.182	15439.6
408.796	15413.2
412.409	15340
416.02	15370.3
419.63	15416.1
423.239	15312.1
426.846	15243.4
430.452	15337.7
434.056	15267.4
437.659	15241.8
441.26	15365.4
444.86	15348
448.459	15418.2
452.056	15345.6
455.652	15359.2
459.246	15364.1
462.839	15351.3
466.431	15399.7
470.021	15357.1
473.609	15339.9
477.197	15338.4
480.781	15481.6
484.365	15525.8
487.948	15437.8
491.53	15513.2
495.11	15542.4
498.689	15576.1
502.267	15659.9
505.841	15792.1
509.416	15793.6
512.989	15826.3
516.561	15847.7
520.131	15896.2
523.701	15888
527.266	15900.1
530.833	15769.8
534.398	15761.1
537.961	15723.3
541.521	15608.9
545.082	15614.7
548.642	15494.2
552.198	15370.7
555.754	15312.8
559.309	15275.7
562.863	15222.6
566.414	15033.6
569.965	14990.7
573.515	15083.9
577.061	14997.1
580.608	15040.4
584.153	15058.7
587.695	15151.6
591.238	15129.6
594.778	15124.7
598.318	15164.4
601.856	15330.1
605.392	15291.2
608.928	15345.9
612.46	15388.4
615.993	15576.6
619.523	15615.6
623.053	15624.9
626.58	15688.7
630.108	15687.9
633.632	15778.3
637.157	15822.6
640.679	15788.7
644.201	15822.1
647.72	15755.2
651.239	15754.7
654.756	15816.2
658.272	15837.7
661.786	16019.3
665.3	16065.4
668.81	16041.3
672.32	16242.7
675.83	16265.8
679.336	16390.7
682.843	16234.7
686.347	16438.8
689.85	16545.9
693.353	16679.4
696.853	16617.4
700.351	16791.1
703.85	16884
707.346	16815.1
710.84	16960.8
714.335	16988.9
717.827	17161.8
721.317	17110.2
724.808	17158.6
728.296	17230.1
731.782	17291.7
735.267	17330.7
738.753	17349.7
742.235	17399.3
745.716	17494.4
749.196	17578.2
752.674	17625.6
756.153	17642.8
759.628	17790.6
763.102	17931.1
766.575	18242.7
770.047	18531.7
773.517	18839.4
776.988	18958
780.456	18798.7
783.922	18784.8
787.387	18756.8
790.85	18798.6
794.312	18921
797.773	18972.6
801.233	18955.9
804.691	18975.6
808.148	19077.4
811.603	19094
815.057	19071.3
818.51	19173.2
821.964	19030.4
825.414	19089.8
828.863	19075.2
832.311	19056.1
835.755	18919.2
839.2	19020.7
842.643	18812.6
846.086	18701.6
849.527	18814.9
852.966	18743.3
856.405	18616.1
859.842	18819.3
863.278	18676.4
866.712	18761.1
870.145	18698.4
873.577	18658.2
877.005	18782.1
880.434	18746.8
883.862	18900.3
887.289	18799.4
890.714	18985.9
894.138	18907.3
897.558	18976
900.98	19016.6
904.4	19003.1
907.818	19013.1
911.236	19102.2
914.65	18981.9
918.065	18991.7
921.478	18949.8
924.89	18786.9
928.299	18764.4
931.708	18621.6
935.117	18579.4
938.522	18449.7
941.927	18373.7
945.332	18262.2
948.735	18160.9
952.134	18165.9
955.535	18178.3
958.932	17947.6
962.33	18001.3
965.726	17923.4
969.12	17750.8
972.514	17703.7
975.906	17606.3
979.296	17613.6
982.686	17503.1
986.073	17435.7
989.46	17333.2
992.845	17284.1
996.23	17261.6
999.611	17257.6
1002.99	17187.7
1006.37	17130.1
1009.75	17078.8
1013.13	17134.9
1016.51	17144.3
1019.88	17072.4
1023.26	17122.6
1026.63	17200.3
1030	17197.2
1033.37	17128.2
1036.74	17154.3
1040.1	17188.6
1043.47	17163.7
1046.83	17181
1050.2	17256.3
1053.56	17263.8
1056.92	17196.1
1060.28	17146
1063.64	17130.4
1066.99	17181
1070.35	17150.9
1073.7	17064.3
1077.06	17088.8
1080.41	17099.3
1083.76	17066.8
1087.11	17084.2
1090.46	17070
1093.8	17048
1097.15	17064.1
1100.49	17144.1
1103.83	17299.7
1107.17	17178.2
1110.51	17284.1
1113.85	17271.8
1117.19	17225.4
1120.53	17385
1123.86	17456.3
1127.2	17375.7
1130.53	17455.4
1133.86	17497.3
1137.19	17586
1140.52	17653.8
1143.85	17589.7
1147.17	17674.2
1150.5	17648.7
1153.82	17616.8
1157.14	17600.8
1160.46	17700.6
1163.78	17677.8
1167.1	17630
1170.42	17635.3
1173.73	17658
1177.05	17585.4
1180.36	17587.8
1183.67	17603
1186.98	17648.3
1190.29	17676.4
1193.6	17595.7
1196.91	17557.2
1200.21	17636.9
1203.52	17816.2
1206.82	17805.1
1210.13	17783.2
1213.43	17833.7
1216.73	17901.7
1220.02	18078
1223.32	18105.3
1226.62	18173.7
1229.91	18280.1
1233.2	18354.1
1236.5	18431.9
1239.79	18520.1
1243.07	18671.9
1246.36	18740.9
1249.65	18718.4
1252.94	18904.8
1256.22	19072.3
1259.5	19150.7
1262.79	19239.7
1266.07	19325.8
1269.35	19318.1
1272.62	19601.9
1275.9	19637.8
1279.18	19671.9
1282.45	19723.9
1285.72	19848.4
1289	19868.1
1292.27	19884.2
1295.54	20100.8
1298.81	20119.3
1302.07	20265.7
1305.34	20373.8
1308.6	20491.1
1311.87	20642.1
1315.13	20779.8
1318.39	20951.6
1321.65	21187.2
1324.91	21330.9
1328.16	21572.9
1331.42	21914.1
1334.67	22063.6
1337.93	22322.9
1341.18	22495
1344.43	22702.8
1347.68	22878.1
1350.93	22924.9
1354.18	23027.8
1357.42	23082.1
1360.67	22864.9
1363.91	22711.6
1367.15	22737.8
1370.39	22459.6
1373.63	22434.3
1376.87	22283.4
1380.11	22099.9
1383.35	21970.8
1386.58	21851.2
1389.81	21722.3
1393.05	21498.1
1396.28	21528.3
1399.51	21424.1
1402.74	21488.8
1405.97	21351.4
1409.19	21321.7
1412.42	21303.4
1415.64	21272.7
1418.86	21086.1
1422.09	21184.6
1425.31	21253.8
1428.53	21149.6
1431.74	21079.4
1434.96	21126.9
1438.18	21142.8
1441.39	21015.3
1444.6	20997.1
1447.82	21168.2
1451.03	20983.4
1454.24	21000.6
1457.44	20877
1460.65	20964.7
1463.86	20943.9
1467.06	20976.4
1470.27	20921.3
1473.47	20872.7
1476.67	20903
1479.87	20901.9
1483.07	20857.1
1486.26	20861.7
1489.46	20910.8
1492.66	21010.8
1495.85	20940.8
1499.04	21110.4
1502.23	21088.3
1505.42	21188.7
1508.61	21361.4
1511.8	21281.4
1514.99	21492.9
1518.17	21556.4
1521.36	21607.8
1524.54	21787.9
1527.72	21904.1
1530.9	22082.8
1534.08	22089.1
1537.26	22224.3
1540.44	22438.1
1543.61	22597.6
1546.79	22961.9
1549.96	23137.4
1553.14	23424.4
1556.31	23656.3
1559.48	23739.2
1562.65	23843
1565.81	24124
1568.98	24302.9
1572.14	24613.2
1575.31	24837.1
1578.47	25095.7
1581.63	25036
1584.79	25242.9
1587.95	25279.3
1591.11	25204
1594.27	25073.9
1597.42	24800.3
1600.58	24633.8
1603.73	24399.3
1606.89	24398.7
1610.04	24135.6
1613.19	23977.8
1616.34	23784
1619.48	23604.7
1622.63	23472.2
1625.78	23437
1628.92	23194.9
1632.06	23090
1635.2	22967.2
1638.34	22865.2
1641.48	22751.2
1644.62	22672.9
1647.76	22589.8
1650.9	22626.2
1654.03	22628.2
1657.16	22635.8
1660.3	22550.1
1663.43	22631.8
1666.56	22568.1
1669.69	22686.7
1672.81	22665.3
1675.94	22726.7
1679.07	22645.7
1682.19	22647.8
1685.31	22669.9
1688.44	22651.9
1691.56	22570.2
1694.68	22584.3
1697.79	22523.4
1700.91	22554.6
1704.03	22536.4
1707.14	22418.2
1710.26	22410.4
1713.37	22209.8
1716.48	22266.9
1719.59	22310.6
1722.7	22280.7
1725.81	22206.1
1728.92	22203.4
1732.02	22213.8
1735.13	22256
1738.23	22210.7
1741.33	22222.7
1744.43	22267.7
1747.53	22251.2
1750.63	22385.9
1753.73	22375.1
1756.83	22506.7
1759.92	22569.3
1763.02	22645.8
1766.11	22608
1769.2	22742.9
1772.29	22818.9
1775.38	22962
1778.47	23050
1781.56	23129.1
1784.65	23284.6
1787.73	23197.3
1790.82	23305.1
1793.9	23277.8
1796.98	23331
1800.06	23352.7
1803.14	23469.2
1806.22	23361.9
1809.3	23355.9
1812.37	23291
1815.45	23301.1
1818.52	23302.3
1821.59	23247.2
1824.66	23218.9
1827.74	23239.2
1830.8	23138.9
1833.87	23068.8
1836.94	23114.6
1840.01	22993.6
1843.07	23064.2
1846.13	22944
1849.2	23035.8
1852.26	22959.2
1855.32	23039.4
1858.38	22986.2
1861.44	22988.3
1864.49	23093.4
1867.55	23042
1870.6	23088.8
1873.66	23169.8
1876.71	23216.7
1879.76	23308
1882.81	23342.9
1885.86	23388.3
1888.91	23528.4
1891.96	23653.4
1895	23927.6
1898.05	23850.2
1901.09	23981.7
1904.13	23987.4
1907.17	24186.3
1910.21	24225
1913.25	24265.3
1916.29	24322.2
1919.33	24439.8
1922.36	24459.3
1925.4	24496
1928.43	24446.6
1931.46	24539
1934.49	24513.8
1937.52	24526.2
1940.55	24536.6
1943.58	24522.4
1946.61	24548.6
1949.63	24525.4
1952.66	24444
1955.68	24605.8
1958.7	24453.8
1961.73	24491.8
1964.75	24589.3
1967.77	24524.3
1970.78	24396.7
1973.8	24411
1976.82	24511.1
1979.83	24434.1
1982.84	24371.2
1985.86	24530.9
1988.87	24558.9
1991.88	24549.9
1994.89	24495.9
1997.9	24511.1
2000.9	24676.8
2003.91	24682
2006.91	24718.3
2009.92	24707.8
2012.92	24772.9
2015.92	24731.8
2018.92	24927.8
2021.92	24961.1
2024.92	25065.4
2027.92	25072
2030.91	25059.7
2033.91	25232.1
2036.9	25086.2
2039.89	25237.6
2042.89	25249.7
2045.88	25215
2048.87	25214.7
2051.85	25162.2
2054.84	25198
2057.83	25033.3
2060.81	25102.9
2063.8	25102.2
2066.78	24990.9
2069.76	25064.2
2072.74	24902.4
2075.72	24920.2
2078.7	24836.6
2081.68	24876.8
2084.66	24828.6
2087.63	24723.8
2090.61	24796.1
2093.58	24711.3
2096.55	24722.2
2099.52	24633.3
2102.49	24726.3
2105.46	24674.1
2108.43	24760.9
2111.4	24828.9
2114.36	24769.4
2117.33	24852
2120.29	24905.1
2123.25	24921.2
2126.21	24949.2
2129.17	25028.9
2132.13	25111.4
2135.09	25104.7
2138.05	25366.4
2141.01	25358.1
2143.96	25481.1
2146.91	25534.9
2149.87	25711.1
2152.82	25689.7
2155.77	25787.3
2158.72	25888.3
2161.67	25726.9
2164.62	25933.6
2167.56	25881.7
2170.51	26099.6
2173.45	26030
2176.39	26088.6
2179.34	26212.7
2182.28	26113.6
2185.22	26108.6
2188.16	26196
2191.1	26082.1
2194.03	26211.8
2196.97	26056.3
2199.9	26099.7
2202.84	25913.1
2205.77	25924.8
2208.7	25906.7
2211.63	25831.8
2214.56	25869.9
2217.49	25759.2
2220.42	25722.7
2223.34	25683.1
2226.27	25650.8
2229.19	25617.9
2232.12	25503
2235.04	25461.9
2237.96	25480.6
2240.88	25481.6
2243.8	25415.7
2246.72	25493
2249.64	25341.2
2252.55	25403.8
2255.47	25374.7
2258.38	25511.3
2261.29	25517.8
2264.2	25441.4
2267.11	25549.2
2270.02	25672
2272.93	25642.8
2275.84	25700.7
2278.75	25749
2281.65	25862.1
2284.56	25891.7
2287.46	25928.4
2290.36	25964.9
2293.26	26091
2296.16	26235.1
2299.06	26242.3
2301.96	26330.8
2304.86	26415
2307.75	26347.9
2310.65	26507.7
2313.54	26686.6
2316.44	26724.4
2319.33	26864.7
2322.22	27356.6
2325.11	27833.3
2328	27767.2
2330.89	27685.9
2333.77	27380.4
2336.66	27134.2
2339.54	27126.3
2342.43	27083
2345.31	27123.3
2348.19	27186
2351.07	27142
2353.95	27165.2
2356.83	27227.9
2359.71	27211.1
2362.58	27161.6
2365.46	27236.4
2368.33	27268.3
2371.21	27321.3
2374.08	27209.4
2376.95	27273.6
2379.82	27124.6
2382.69	27249.8
2385.56	27143
2388.43	27213.2
2391.29	27096.2
2394.16	27254.4
2397.02	27220.4
2399.88	27217.9
2402.75	27146.1
2405.61	27110.9
2408.47	27048.7
2411.33	27043.6
2414.19	26943.2
2417.04	27065.1
2419.9	27007.8
2422.75	27008.8
2425.61	26980.6
2428.46	26885.3
2431.31	26956.7
2434.16	26944.1
2437.01	26973.8
2439.86	26903.1
2442.71	26954.3
2445.56	26903.2
2448.4	26972.9
2451.25	26954
2454.09	27026.2
2456.93	26839.3
2459.78	26777.3
2462.62	26941.8
2465.46	26831.7
2468.3	26902.7
2471.13	27007.9
2473.97	26965.6
2476.81	27091.4
2479.64	27179.7
2482.47	27190.2
2485.31	27173.7
2488.14	27221.8
2490.97	27374.4
2493.8	27273.9
2496.63	27428
2499.46	27433.4
2502.28	27532.1
2505.11	27427.7
2507.93	27609.7
2510.76	27805.6
2513.58	27738.3
2516.4	27682.9
2519.22	27901.1
2522.04	27937.7
2524.86	28105.3
2527.68	28035.2
2530.5	28138.6
2533.31	28284.1
2536.13	28224.8
2538.94	28421.6
2541.75	28414.4
2544.57	28433.7
2547.38	28480.9
2550.19	28395.4
2553	28485.1
2555.8	28553.3
2558.61	28600
2561.41	28554.1
2564.22	28633.1
2567.02	28710
2569.83	28642.2
2572.63	28574.9
2575.43	28578.7
2578.23	28576
2581.03	28452.3
2583.83	28512.2
2586.62	28420.9
2589.42	28516.7
2592.22	28401.2
2595.01	28394
2597.8	28295.6
2600.59	28338.1
2603.39	28269
2606.18	28106.3
2608.97	28142.2
2611.75	28102.3
2614.54	28160.8
2617.33	28117.2
2620.11	28168.7
2622.9	28113.8
2625.68	28128
2628.46	28216.4
2631.24	28154.7
2634.02	28168.2
2636.8	28262.7
2639.58	28141.6
2642.36	28351.4
2645.13	28438.3
2647.91	28495.4
2650.68	28654.3
2653.46	28669.1
2656.23	28841.1
2659	28806.7
2661.77	28896.6
2664.54	29082.4
2667.31	29232.4
2670.08	29222.7
2672.84	29445
2675.61	29720.2
2678.38	29569.6
2681.14	29754.8
2683.9	29750.8
2686.66	29894.6
2689.42	30117.3
2692.18	30256.6
2694.94	30246.9
2697.7	30153.6
2700.46	30291
2703.21	30332.4
2705.97	30435.2
2708.72	30501.9
2711.48	30405.3
2714.23	30419.3
2716.98	30281.1
2719.73	30179.6
2722.48	30195.3
2725.23	30088.6
2727.98	30081.9
2730.72	29963.7
2733.47	29870.8
2736.21	29853.2
2738.96	29738.6
2741.7	29604.9
2744.44	29588.7
2747.18	29473
2749.92	29476.4
2752.66	29293.7
2755.4	29281.6
2758.13	29260.2
2760.87	29201.3
2763.6	29158.9
2766.34	29094
2769.07	29061.3
2771.8	28977.8
2774.53	28940.9
2777.26	28985.3
2779.99	28934.3
2782.72	28980.7
2785.45	29148.2
2788.18	29077.1
2790.9	29224.8
2793.63	29155
2796.35	29142.3
2799.07	29255.4
2801.79	29398.9
2804.51	29378.4
2807.23	29489.4
2809.95	29615.7
2812.67	29742
2815.39	29782.3
2818.1	29780.4
2820.82	30041.6
2823.53	29908.2
2826.25	30107
2828.96	29932
2831.67	30194.7
2834.38	30270.2
2837.09	30209
2839.8	30398.7
2842.5	30366.2
2845.21	30437
2847.92	30425.6
2850.62	30329.8
2853.33	30444.8
2856.03	30485.2
2858.73	30363.6
2861.43	30270.4
2864.13	30355.6
2866.83	30328
2869.53	30163.4
2872.23	30195.3
2874.92	30002.4
2877.62	29964.9
2880.31	29931.9
2883.01	29918.9
2885.7	29925.9
2888.39	29922.4
2891.08	29781.9
2893.77	29570.8
2896.46	29570.4
2899.15	29629.4
2901.83	29523
2904.52	29530.3
2907.21	29482.7
2909.89	29471.7
2912.57	29515.4
2915.26	29452.3
2917.94	29536.8
2920.62	29392.9
2923.3	29585.7
2925.98	29609.3
2928.65	29724.6
2931.33	29619.8
2934.01	29814.7
2936.68	29817.2
2939.35	29958.7
2942.03	30031.8
2944.7	30156.4
2947.37	30141.7
2950.04	30323.6
2952.71	30541.8
2955.38	30640
2958.05	30608
2960.71	30693.2
2963.38	30807
2966.04	30873
2968.71	30782.4
2971.37	31071.3
2974.03	31037.1
2976.69	31127.4
2979.35	31191.6
2982.01	31203.8
2984.67	31108.6
2987.33	31223.4
2989.99	31058.2
2992.64	31153.4
2995.3	31187.9
2997.95	31121.6
